Data from 20171114-ORNL-Ar_H_NY_Subt18_08-03-58-513.txt Node
Date: Tue Nov 14 08:03:58 EST 2017
User: Ender
Spectrometer: HR+D1039
Trigger mode: 0
Integration Time (sec): 2.730000E-2
Scans to average: 10
Electric dark correction enabled: true
Nonlinearity correction enabled: false
Boxcar width: 0
XAxis mode: Wavelengths
Number of Pixels in Spectrum: 2048
>>>>>Begin Spectral Data<<<<<
187.836	-3.35
188.309	-3.35
188.782	-3.35
189.255	-3.55
189.728	-4.65
190.201	6.05
190.674	2.35
191.147	2.45
191.619	-6.75
192.092	6.05
192.565	3.45
193.038	2.75
193.511	-1.55
193.984	-4.05
194.456	-4.05
194.929	1.85
195.402	0.65
195.874	2.35
196.347	-0.45
196.82	-14.85
197.292	4.75
197.765	3.45
198.237	-3.75
198.71	-3.15
199.182	-1.35
199.655	3.05
200.127	1.45
200.6	0.55
201.072	-2.55
201.544	-10.55
202.017	-4.25
202.489	2.55
202.961	-0.45
203.433	-6.35
203.906	-10.05
204.378	-2.25
204.85	-11.95
205.322	-9.85
205.794	-2.55
206.266	-5.15
206.739	-4.15
207.211	1.35
207.683	-4.25
208.155	-7.45
208.627	-8.25
209.099	-5.35
209.57	-2.55
210.042	-7.75
210.514	-2.85
210.986	0.25
211.458	-11.05
211.93	3.35
212.402	-1.35
212.873	-6.75
213.345	-7.65
213.817	-18.65
214.288	-11.35
214.76	-16.95
215.232	3.35
215.703	-2.35
216.175	-0.05
216.646	-2.85
217.118	-12.95
217.589	-6.85
218.061	-3.45
218.532	-4.75
219.004	-3.45
219.475	-6.15
219.946	-4.55
220.418	-1.85
220.889	1.45
221.36	3.35
221.832	-11.25
222.303	-13.75
222.774	-3.95
223.245	-8.15
223.717	-8.25
224.188	-6.65
224.659	-8.25
225.13	-5.35
225.601	-4.65
226.072	-4.65
226.543	-3.55
227.014	-4.95
227.485	-3.15
227.956	-6.15
228.427	-3.35
228.898	0.15
229.369	1.55
229.839	-4.15
230.31	-8.55
230.781	-1.35
231.252	-7.75
231.722	3.05
232.193	-2.15
232.664	-4.05
233.135	-1.85
233.605	-4.05
234.076	-10.15
234.546	-1.55
235.017	3.05
235.487	-1.05
235.958	-7.15
236.428	-8.25
236.899	4.05
237.369	-0.85
237.84	-6.55
238.31	0.65
238.78	-1.95
239.251	0.15
239.721	-3.85
240.191	-0.75
240.662	-0.25
241.132	-0.95
241.602	-0.15
242.072	2.05
242.542	-0.85
243.013	-1.55
243.483	0.55
243.953	0.45
244.423	-0.35
244.893	-6.15
245.363	2.45
245.833	-0.45
246.303	-8.55
246.773	-0.05
247.243	1.95
247.712	-3.85
248.182	4.35
248.652	-1.15
249.122	-2.15
249.592	3.75
250.061	7.25
250.531	11.15
251.001	-3.45
251.471	0.85
251.94	8.15
252.41	-6.95
252.879	0.85
253.349	7.65
253.818	1.75
254.288	3.05
254.757	-7.85
255.227	-11.05
255.696	-2.15
256.166	-3.45
256.635	1.55
257.105	6.85
257.574	-0.65
258.043	-0.65
258.513	-2.95
258.982	4.35
259.451	-4.15
259.92	0.75
260.389	2.15
260.859	7.25
261.328	-2.75
261.797	5.05
262.266	0.65
262.735	10.65
263.204	-2.95
263.673	-3.25
264.142	1.65
264.611	-9.35
265.08	-3.85
265.549	-8.15
266.018	-0.55
266.487	-8.75
266.955	-11.75
267.424	-2.75
267.893	1.95
268.362	-5.45
268.83	0.05
269.299	6.65
269.768	3.85
270.236	2.55
270.705	-5.55
271.174	0.55
271.642	-0.05
272.111	-1.25
272.579	-0.35
273.048	3.05
273.516	3.55
273.985	4.85
274.453	7.95
274.922	5.45
275.39	-2.85
275.858	-6.15
276.327	-0.15
276.795	3.85
277.263	1.25
277.731	13.45
278.2	13.65
278.668	12.35
279.136	14.35
279.604	7.15
280.072	12.15
280.54	3.05
281.008	2.95
281.477	8.35
281.945	8.65
282.413	12.15
282.881	13.85
283.348	6.05
283.816	4.65
284.284	10.75
284.752	16.05
285.22	6.05
285.688	5.35
286.156	9.05
286.623	21.35
287.091	6.45
287.559	5.75
288.026	9.95
288.494	1.75
288.962	-3.15
289.429	2.85
289.897	11.35
290.364	10.95
290.832	6.05
291.3	9.55
291.767	5.65
292.234	8.35
292.702	1.75
293.169	3.55
293.637	12.85
294.104	12.05
294.571	1.25
295.039	3.65
295.506	6.95
295.973	8.35
296.44	8.25
296.908	12.95
297.375	5.85
297.842	5.35
298.309	7.05
298.776	1.95
299.243	17.85
299.71	5.55
300.177	8.25
300.644	9.55
301.111	13.95
301.578	13.05
302.045	3.55
302.512	10.25
302.979	11.25
303.446	13.45
303.913	13.05
304.379	9.15
304.846	19.05
305.313	13.35
305.78	10.95
306.246	19.15
306.713	16.65
307.18	16.35
307.646	18.15
308.113	16.65
308.579	16.95
309.046	16.15
309.512	15.95
309.979	8.75
310.445	13.95
310.912	19.75
311.378	19.95
311.845	21.35
312.311	22.35
312.777	24.35
313.244	16.25
313.71	23.65
314.176	16.55
314.642	23.95
315.109	18.75
315.575	27.85
316.041	28.45
316.507	20.55
316.973	26.65
317.439	20.25
317.905	24.45
318.371	21.55
318.837	21.75
319.303	26.15
319.769	22.95
320.235	24.35
320.701	24.75
321.167	28.75
321.633	23.85
322.099	25.25
322.564	35.05
323.03	27.15
323.496	24.55
323.962	32.05
324.427	19.25
324.893	27.95
325.359	30.55
325.824	26.15
326.29	30.55
326.755	24.35
327.221	28.55
327.686	23.05
328.152	36.05
328.617	33.85
329.083	32.25
329.548	40.55
330.014	36.85
330.479	24.85
330.944	29.15
331.41	26.25
331.875	33.55
332.34	34.25
332.805	30.65
333.271	30.05
333.736	32.75
334.201	41.45
334.666	39.95
335.131	43.05
335.596	36.75
336.061	39.35
336.526	32.65
336.991	38.65
337.456	42.05
337.921	36.95
338.386	36.25
338.851	37.55
339.316	42.85
339.781	40.65
340.246	41.35
340.711	41.35
341.175	39.85
341.64	27.45
342.105	37.95
342.569	39.35
343.034	48.75
343.499	48.25
343.963	35.35
344.428	47.95
344.893	55.95
345.357	51.25
345.822	53.05
346.286	47.35
346.751	55.85
347.215	48.15
347.679	54.55
348.144	69.15
348.608	63.35
349.073	56.35
349.537	56.25
350.001	58.35
350.465	65.65
350.93	68.15
351.394	60.15
351.858	56.25
352.322	70.05
352.786	65.55
353.25	75.85
353.715	80.85
354.179	75.75
354.643	94.05
355.107	95.75
355.571	84.55
356.035	74.05
356.498	88.95
356.962	86.35
357.426	88.75
357.89	88.95
358.354	77.85
358.818	64.95
359.281	65.55
359.745	66.15
360.209	67.85
360.673	63.65
361.136	67.85
361.6	65.45
362.064	67.55
362.527	68.85
362.991	70.25
363.454	68.95
363.918	67.95
364.381	65.85
364.845	68.85
365.308	75.25
365.772	76.55
366.235	77.85
366.698	70.15
367.162	69.75
367.625	74.05
368.088	71.65
368.552	69.45
369.015	77.45
369.478	78.35
369.941	84.65
370.404	82.15
370.867	85.65
371.331	87.55
371.794	92.45
372.257	81.95
372.72	96.55
373.183	93.85
373.646	83.85
374.109	86.25
374.572	83.75
375.035	89.05
375.497	90.05
375.96	87.45
376.423	89.55
376.886	97.45
377.349	97.05
377.811	93.05
378.274	91.95
378.737	88.55
379.199	95.05
379.662	90.85
380.125	103.75
380.587	101.15
381.05	95.85
381.512	100.45
381.975	117.65
382.437	102.95
382.9	106.15
383.362	110.25
383.825	116.25
384.287	121.05
384.75	107.05
385.212	116.35
385.674	119.45
386.136	111.15
386.599	109.45
387.061	114.65
387.523	110.55
387.985	121.85
388.447	126.75
388.91	117.45
389.372	119.45
389.834	124.15
390.296	116.15
390.758	131.35
391.22	133.95
391.682	148.85
392.144	187.45
392.606	159.75
393.068	134.35
393.529	141.95
393.991	134.85
394.453	129.65
394.915	129.45
395.377	135.85
395.838	150.15
396.3	134.75
396.762	120.45
397.224	125.85
397.685	119.15
398.147	119.75
398.608	122.75
399.07	121.35
399.531	126.95
399.993	130.95
400.454	141.85
400.916	132.35
401.377	135.55
401.839	144.55
402.3	142.85
402.762	149.45
403.223	167.45
403.684	148.55
404.145	148.15
404.607	153.15
405.068	146.95
405.529	153.55
405.99	168.85
406.451	155.55
406.913	159.85
407.374	147.85
407.835	159.15
408.296	155.65
408.757	161.75
409.218	167.35
409.679	163.95
410.14	169.15
410.601	159.25
411.062	166.75
411.522	173.85
411.983	168.65
412.444	163.75
412.905	171.05
413.366	176.35
413.826	187.25
414.287	211.45
414.748	251.15
415.208	238.65
415.669	200.95
416.13	198.05
416.59	197.55
417.051	209.05
417.511	211.15
417.972	227.45
418.432	238.65
418.893	283.05
419.353	244.75
419.814	192.45
420.274	166.55
420.734	172.15
421.195	183.15
421.655	183.85
422.115	179.05
422.576	185.85
423.036	181.95
423.496	192.75
423.956	212.05
424.416	219.55
424.876	252.05
425.336	244.95
425.797	248.25
426.257	238.55
426.717	225.85
427.177	211.65
427.637	202.55
428.097	218.35
428.556	227.85
429.016	252.95
429.476	242.45
429.936	254.05
430.396	248.55
430.856	259.45
431.315	285.85
431.775	314.35
432.235	340.35
432.694	312.45
433.154	318.95
433.614	332.85
434.073	291.45
434.533	254.35
434.993	247.45
435.452	251.35
435.912	259.85
436.371	245.25
436.83	248.25
437.29	244.15
437.749	224.65
438.209	213.65
438.668	238.65
439.127	246.55
439.587	228.55
440.046	216.05
440.505	235.85
440.964	242.55
441.424	266.35
441.883	265.75
442.342	238.75
442.801	206.05
443.26	207.85
443.719	202.15
444.178	210.45
444.637	199.35
445.096	207.55
445.555	206.05
446.014	209.35
446.473	215.05
446.932	216.65
447.391	212.45
447.849	219.15
448.308	214.25
448.767	208.25
449.226	229.85
449.685	218.85
450.143	239.75
450.602	221.45
451.061	210.85
451.519	221.65
451.978	219.15
452.436	215.25
452.895	221.65
453.353	232.25
453.812	224.45
454.27	226.25
454.729	215.25
455.187	218.45
455.646	225.25
456.104	224.65
456.562	237.35
457.021	243.35
457.479	226.25
457.937	232.05
458.395	240.65
458.854	222.35
459.312	234.45
459.77	240.15
460.228	229.95
460.686	224.45
461.144	240.15
461.602	228.25
462.06	226.15
462.518	234.75
462.976	235.15
463.434	235.55
463.892	241.25
464.35	249.85
464.808	266.15
465.266	246.45
465.724	251.25
466.181	254.65
466.639	246.65
467.097	268.75
467.555	281.55
468.012	276.75
468.47	289.15
468.928	298.65
469.385	305.35
469.843	316.85
470.3	314.05
470.758	326.25
471.215	331.55
471.673	350.75
472.13	354.35
472.588	370.05
473.045	334.85
473.503	341.05
473.96	358.35
474.417	364.45
474.875	389.85
475.332	417.75
475.789	407.45
476.246	423.45
476.704	441.45
477.161	453.35
477.618	459.85
478.075	494.75
478.532	541.45
478.989	590.75
479.446	677.35
479.903	670.45
480.36	704.75
480.817	748.55
481.274	830.15
481.731	919.35
482.188	1003.05
482.645	1110.65
483.102	1194.85
483.558	1290.35
484.015	1354.35
484.472	1343.25
484.929	1287.25
485.385	1251.75
485.842	1228.75
486.299	1162.25
486.755	1107.65
487.212	957.25
487.668	829.15
488.125	763.55
488.582	695.45
489.038	668.95
489.494	627.55
489.951	614.25
490.407	599.95
490.864	576.55
491.32	570.15
491.776	565.55
492.233	578.45
492.689	545.55
493.145	544.85
493.602	534.35
494.058	557.55
494.514	547.35
494.97	554.55
495.426	566.95
495.882	547.45
496.338	543.65
496.794	552.55
497.251	542.85
497.707	554.35
498.163	544.35
498.618	570.35
499.074	557.35
499.53	582.35
499.986	584.55
500.442	568.95
500.898	548.15
501.354	545.55
501.809	562.85
502.265	558.75
502.721	563.65
503.177	568.75
503.632	577.75
504.088	579.05
504.543	597.95
504.999	603.95
505.455	580.45
505.91	563.55
506.366	575.45
506.821	566.55
507.277	562.45
507.732	561.05
508.187	556.95
508.643	568.35
509.098	558.15
509.553	589.85
510.009	585.35
510.464	594.55
510.919	602.15
511.375	610.05
511.83	622.25
512.285	634.65
512.74	654.95
513.195	681.05
513.65	659.35
514.105	674.85
514.56	685.15
515.015	683.85
515.47	697.75
515.925	686.35
516.38	695.05
516.835	701.25
517.29	689.15
517.745	686.55
518.2	674.25
518.655	661.55
519.109	648.65
519.564	647.05
520.019	634.55
520.474	638.35
520.928	626.15
521.383	621.25
521.838	609.25
522.292	618.85
522.747	620.75
523.201	611.75
523.656	604.65
524.11	614.05
524.565	613.15
525.019	603.05
525.474	597.95
525.928	602.15
526.382	596.65
526.837	601.35
527.291	605.85
527.745	608.85
528.2	598.05
528.654	592.95
529.108	592.25
529.562	587.75
530.016	594.05
530.47	592.15
530.925	585.85
531.379	596.95
531.833	607.35
532.287	597.95
532.741	594.15
533.195	591.35
533.649	608.35
534.103	608.35
534.556	598.35
535.01	601.85
535.464	596.85
535.918	610.75
536.372	615.25
536.826	610.75
537.279	596.25
537.733	602.55
538.187	605.55
538.64	608.45
539.094	614.15
539.548	612.75
540.001	604.85
540.455	597.35
540.908	620.55
541.362	623.55
541.815	638.05
542.269	635.45
542.722	633.95
543.175	644.85
543.629	642.15
544.082	664.95
544.536	664.95
544.989	659.45
545.442	662.95
545.895	664.25
546.349	663.35
546.802	667.05
547.255	668.15
547.708	667.85
548.161	683.05
548.614	688.15
549.067	698.35
549.52	686.35
549.973	686.25
550.426	671.65
550.879	665.85
551.332	654.95
551.785	669.65
552.238	674.35
552.691	675.75
553.144	696.45
553.596	698.55
554.049	706.15
554.502	732.35
554.955	749.85
555.407	750.75
555.86	747.35
556.313	732.45
556.765	720.05
557.218	725.95
557.67	725.05
558.123	716.75
558.576	716.05
559.028	722.95
559.48	723.55
559.933	723.75
560.385	692.15
560.838	661.55
561.29	650.85
561.742	643.75
562.195	631.35
562.647	628.95
563.099	638.75
563.551	636.65
564.004	644.45
564.456	627.75
564.908	614.65
565.36	610.05
565.812	592.75
566.264	590.75
566.716	576.55
567.168	568.85
567.62	574.85
568.072	564.85
568.524	558.95
568.976	550.85
569.428	543.35
569.88	541.65
570.332	543.05
570.784	549.25
571.235	549.65
571.687	557.15
572.139	561.65
572.59	560.45
573.042	562.75
573.494	575.15
573.945	562.55
574.397	537.45
574.849	546.35
575.3	551.35
575.752	542.15
576.203	534.45
576.655	544.45
577.106	535.75
577.557	532.55
578.009	533.45
578.46	531.05
578.912	529.65
579.363	523.65
579.814	528.05
580.265	518.25
580.717	527.75
581.168	534.45
581.619	536.35
582.07	537.85
582.521	541.55
582.972	528.75
583.423	531.55
583.875	523.45
584.326	534.15
584.777	559.05
585.227	592.45
585.678	624.05
586.129	658.65
586.58	702.15
587.031	723.35
587.482	794.45
587.933	868.15
588.384	812.35
588.834	677.55
589.285	613.15
589.736	606.75
590.186	599.75
590.637	596.15
591.088	578.45
591.538	566.75
591.989	569.55
592.439	570.85
592.89	551.65
593.34	548.05
593.791	543.95
594.241	540.35
594.692	543.85
595.142	539.85
595.593	525.85
596.043	538.95
596.493	537.15
596.943	544.25
597.394	557.25
597.844	547.25
598.294	563.75
598.744	581.65
599.195	597.15
599.645	635.95
600.095	648.55
600.545	699.25
600.995	736.95
601.445	779.45
601.895	830.95
602.345	870.95
602.795	855.05
603.245	821.45
603.695	777.75
604.145	730.75
604.594	706.65
605.044	664.65
605.494	608.75
605.944	570.95
606.393	571.15
606.843	545.55
607.293	555.25
607.743	553.25
608.192	557.85
608.642	571.65
609.091	569.05
609.541	573.55
609.99	570.35
610.44	571.75
610.889	542.05
611.339	521.35
611.788	516.05
612.238	520.25
612.687	530.85
613.136	529.65
613.586	538.15
614.035	519.65
614.484	540.45
614.933	534.25
615.383	542.55
615.832	537.55
616.281	521.75
616.73	507.15
617.179	492.05
617.628	484.75
618.077	472.95
618.526	464.35
618.975	457.05
619.424	465.45
619.873	448.35
620.322	457.65
620.771	446.95
621.22	441.05
621.669	437.35
622.118	439.35
622.567	428.05
623.015	427.15
623.464	431.45
623.913	417.85
624.361	408.45
624.81	407.75
625.259	401.05
625.707	414.35
626.156	412.15
626.604	413.15
627.053	410.35
627.501	409.65
627.95	422.65
628.398	434.35
628.847	419.85
629.295	414.05
629.744	422.15
630.192	412.75
630.64	417.35
631.089	406.75
631.537	403.35
631.985	395.75
632.433	398.45
632.881	398.35
633.33	409.65
633.778	402.65
634.226	394.15
634.674	389.95
635.122	407.35
635.57	408.55
636.018	416.25
636.466	417.15
636.914	399.05
637.362	418.05
637.81	425.05
638.258	418.95
638.705	420.75
639.153	442.25
639.601	447.45
640.049	465.55
640.497	495.15
640.944	505.75
641.392	463.85
641.84	449.65
642.287	428.95
642.735	408.25
643.182	412.45
643.63	414.05
644.078	399.95
644.525	424.05
644.973	420.55
645.42	427.35
645.867	444.15
646.315	459.85
646.762	475.35
647.21	492.05
647.657	500.95
648.104	533.25
648.551	550.25
648.999	576.15
649.446	629.95
649.893	688.85
650.34	786.65
650.787	936.05
651.234	1149.65
651.682	1467.45
652.129	2005.75
652.576	2819.25
653.023	4193.65
653.47	5787.45
653.917	7265.15
654.363	8614.05
654.81	9735.85
655.257	9247.25
655.704	6087.75
656.151	3595.15
656.598	2337.55
657.044	1662.45
657.491	1272.75
657.938	1018.65
658.385	860.25
658.831	744.65
659.278	669.75
659.724	597.05
660.171	551.35
660.618	503.35
661.064	473.75
661.511	454.75
661.957	446.85
662.404	428.05
662.85	436.85
663.296	428.95
663.743	399.25
664.189	382.25
664.635	380.35
665.082	371.15
665.528	373.05
665.974	359.35
666.42	367.25
666.867	349.95
667.313	339.15
667.759	331.95
668.205	324.55
668.651	328.15
669.097	327.35
669.543	323.55
669.989	325.75
670.435	318.85
670.881	319.45
671.327	320.95
671.773	324.75
672.219	346.95
672.665	393.95
673.11	417.45
673.556	451.65
674.002	481.55
674.448	476.25
674.893	397.45
675.339	338.25
675.785	317.25
676.23	297.15
676.676	276.15
677.122	269.55
677.567	268.15
678.013	258.75
678.458	255.05
678.904	254.45
679.349	245.65
679.794	252.35
680.24	241.95
680.685	251.35
681.131	243.75
681.576	246.95
682.021	254.45
682.466	242.55
682.912	250.55
683.357	254.25
683.802	267.25
684.247	287.75
684.692	314.45
685.137	345.05
685.583	386.35
686.028	403.55
686.473	375.35
686.918	316.45
687.363	295.35
687.807	274.85
688.252	247.05
688.697	255.65
689.142	242.05
689.587	231.85
690.032	223.85
690.477	238.15
690.921	247.35
691.366	268.25
691.811	285.35
692.255	310.25
692.7	320.55
693.145	349.25
693.589	481.55
694.034	779.15
694.478	1082.95
694.923	1279.65
695.367	1693.95
695.812	874.45
696.256	357.95
696.701	262.25
697.145	241.85
697.59	234.55
698.034	224.55
698.478	234.45
698.922	229.25
699.367	220.25
699.811	234.45
700.255	243.15
700.699	264.95
701.143	287.25
701.588	332.85
702.032	365.15
702.476	363.05
702.92	347.35
703.364	350.55
703.808	434.45
704.252	700.05
704.696	1012.55
705.14	1227.75
705.584	1581.95
706.027	779.95
706.471	369.75
706.915	279.15
707.359	245.75
707.803	222.05
708.246	214.05
708.69	219.55
709.134	221.65
709.577	220.85
710.021	225.05
710.465	214.85
710.908	209.35
711.352	217.05
711.795	217.25
712.239	250.75
712.682	262.25
713.126	285.45
713.569	331.65
714.012	254.85
714.456	221.65
714.899	206.05
715.342	188.05
715.786	176.85
716.229	175.35
716.672	173.55
717.115	167.95
717.558	169.25
718.002	172.15
718.445	180.65
718.888	196.85
719.331	206.95
719.774	221.15
720.217	214.05
720.66	201.95
721.103	192.75
721.546	174.55
721.989	175.55
722.432	161.15
722.874	158.95
723.317	160.85
723.76	159.75
724.203	180.25
724.645	216.45
725.088	295.85
725.531	394.65
725.974	461.35
726.416	394.95
726.859	213.65
727.301	169.15
727.744	163.05
728.187	166.25
728.629	169.75
729.071	169.55
729.514	181.05
729.956	186.45
730.399	194.15
730.841	199.45
731.283	191.85
731.726	188.05
732.168	180.55
732.61	182.65
733.053	197.65
733.495	220.05
733.937	244.15
734.379	281.05
734.821	296.65
735.263	373.85
735.705	563.75
736.148	1075.25
736.59	1828.65
737.032	2291.75
737.474	1872.35
737.916	591.25
738.357	299.65
738.799	230.45
739.241	213.95
739.683	197.05
740.125	202.65
740.567	218.55
741.008	227.95
741.45	220.55
741.892	227.45
742.334	250.75
742.775	260.45
743.217	252.45
743.658	192.85
744.1	182.85
744.542	184.95
744.983	223.65
745.425	251.35
745.866	251.85
746.307	201.25
746.749	199.65
747.19	227.15
747.632	305.75
748.073	583.15
748.514	1270.65
748.956	2039.75
749.397	2582.45
749.838	2146.35
750.279	2221.15
750.72	1111.75
751.162	396.45
751.603	232.15
752.044	180.65
752.485	152.45
752.926	145.25
753.367	139.85
753.808	140.45
754.249	132.95
754.69	123.35
755.131	131.55
755.572	126.25
756.013	125.85
756.453	127.65
756.894	124.25
757.335	130.05
757.776	130.05
758.216	138.55
758.657	137.95
759.098	142.05
759.538	154.75
759.979	190.15
760.42	256.45
760.86	480.25
761.301	1248.65
761.741	3135.35
762.182	4943.45
762.622	3499.95
763.063	976.75
763.503	380.05
763.943	236.95
764.384	211.15
764.824	219.75
765.264	228.85
765.705	174.75
766.145	132.65
766.585	119.75
767.025	118.85
767.465	120.35
767.906	143.05
768.346	176.25
768.786	189.05
769.226	162.35
769.666	207.15
770.106	412.35
770.546	1061.85
770.986	1939.05
771.426	1780.85
771.866	576.35
772.306	231.35
772.745	143.85
773.185	116.45
773.625	118.15
774.065	102.35
774.505	117.65
774.944	161.65
775.384	316.85
775.824	589.85
776.263	584.75
776.703	271.45
777.142	119.45
777.582	103.05
778.021	85.45
778.461	94.35
778.9	82.55
779.34	84.25
779.779	80.95
780.219	70.35
780.658	74.05
781.097	72.45
781.537	75.55
781.976	77.25
782.415	69.45
782.855	65.75
783.294	67.75
783.733	69.05
784.172	73.35
784.611	68.15
785.05	73.25
785.489	77.55
785.928	77.25
786.367	81.15
786.806	81.35
787.245	91.95
787.684	93.45
788.123	103.25
788.562	91.95
789.001	82.85
789.44	81.85
789.879	81.95
790.317	84.95
790.756	85.15
791.195	85.95
791.634	97.25
792.072	139.95
792.511	244.85
792.95	672.85
793.388	1551.25
793.827	1475.75
794.265	494.85
794.704	197.05
795.142	133.45
795.581	112.45
796.019	96.15
796.458	90.35
796.896	82.25
797.334	87.35
797.773	106.85
798.211	148.05
798.649	294.65
799.087	705.15
799.526	1146.95
799.964	1447.85
800.402	1525.15
800.84	557.45
801.278	211.65
801.716	137.25
802.154	107.95
802.592	99.05
803.03	94.75
803.468	92.25
803.906	98.85
804.344	104.85
804.782	99.35
805.22	95.55
805.658	90.65
806.096	100.75
806.533	116.05
806.971	121.85
807.409	152.05
807.847	211.95
808.284	447.35
808.722	1307.95
809.16	2473.45
809.597	2276.55
810.035	4054.55
810.472	4592.55
810.91	1636.15
811.347	604.85
811.785	297.65
812.222	181.65
812.66	135.15
813.097	112.75
813.535	103.65
813.972	85.75
814.409	80.05
814.846	70.25
815.284	77.35
815.721	68.25
816.158	70.45
816.595	80.15
817.032	111.75
817.47	138.95
817.907	104.75
818.344	83.05
818.781	64.25
819.218	65.35
819.655	86.45
820.092	139.65
820.529	168.95
820.966	135.15
821.403	95.15
821.839	77.15
822.276	67.65
822.713	88.65
823.15	100.85
823.587	88.05
824.023	98.95
824.46	204.15
824.897	629.35
825.333	1020.25
825.77	434.45
826.206	163.15
826.643	92.35
827.08	70.65
827.516	54.35
827.953	50.85
828.389	64.05
828.825	52.75
829.262	45.05
829.698	46.35
830.135	50.35
830.571	32.95
831.007	39.75
831.443	45.55
831.88	40.75
832.316	42.95
832.752	40.95
833.188	44.05
833.624	46.55
834.06	44.45
834.497	50.15
834.933	54.15
835.369	54.25
835.805	48.75
836.241	46.85
836.677	58.45
837.112	61.75
837.548	72.45
837.984	94.35
838.42	137.35
838.856	341.05
839.292	1092.45
839.727	1772.45
840.163	807.05
840.599	663.25
841.034	1508.75
841.47	1643.95
841.906	591.85
842.341	233.05
842.777	147.85
843.212	170.65
843.648	171.95
844.083	88.25
844.519	56.05
844.954	50.25
845.39	38.35
845.825	34.95
846.261	37.95
846.696	39.25
847.131	34.45
847.566	43.15
848.002	31.45
848.437	37.05
848.872	38.55
849.307	42.65
849.742	54.65
850.177	117.55
850.613	394.95
851.048	660.55
851.483	284.65
851.918	112.15
852.353	58.65
852.788	37.35
853.223	33.25
853.657	37.35
854.092	26.85
854.527	25.35
854.962	25.05
855.397	30.05
855.832	31.95
856.266	25.15
856.701	30.75
857.136	18.25
857.57	24.95
858.005	26.95
858.44	41.25
858.874	27.25
859.309	36.45
859.743	24.45
860.178	28.95
860.612	22.55
861.047	40.65
861.481	53.45
861.915	50.95
862.35	37.45
862.784	21.75
863.218	26.65
863.653	22.35
864.087	36.85
864.521	37.65
864.955	44.95
865.39	104.75
865.824	128.15
866.258	84.35
866.692	128.45
867.126	142.95
867.56	96.45
867.994	43.15
868.428	28.45
868.862	31.65
869.296	32.95
869.73	43.55
870.164	42.15
870.598	36.55
871.031	21.05
871.465	25.45
871.899	18.95
872.333	13.25
872.766	13.45
873.2	14.65
873.634	15.55
874.067	15.45
874.501	22.95
874.935	18.85
875.368	20.45
875.802	20.05
876.235	16.35
876.669	11.45
877.102	17.85
877.535	16.75
877.969	16.55
878.402	16.25
878.836	13.35
879.269	15.65
879.702	14.05
880.135	13.15
880.569	13.75
881.002	23.25
881.435	12.25
881.868	9.35
882.301	20.25
882.734	15.75
883.167	15.35
883.601	9.45
884.034	20.35
884.467	10.45
884.899	12.55
885.332	10.75
885.765	5.65
886.198	10.45
886.631	5.75
887.064	8.15
887.497	12.65
887.929	18.45
888.362	7.85
888.795	5.95
889.228	13.55
889.66	10.65
890.093	12.45
890.526	7.75
890.958	7.15
891.391	4.35
891.823	14.55
892.256	4.45
892.688	6.95
893.121	9.55
893.553	12.25
893.985	22.75
894.418	7.25
894.85	7.15
895.282	10.45
895.715	8.55
896.147	9.15
896.579	10.95
897.011	5.95
897.444	12.15
897.876	11.75
898.308	10.75
898.74	6.05
899.172	4.25
899.604	22.15
900.036	21.65
900.468	10.65
900.9	13.05
901.332	13.55
901.764	8.75
902.196	10.65
902.628	10.95
903.06	13.45
903.491	21.75
903.923	15.05
904.355	9.65
904.787	16.65
905.218	12.55
905.65	15.95
906.082	3.05
906.513	5.55
906.945	7.45
907.376	5.15
907.808	14.65
908.239	12.75
908.671	14.45
909.102	11.15
909.534	17.35
909.965	26.75
910.397	68.25
910.828	236.45
911.259	375.85
911.691	167.65
912.122	77.75
912.553	30.45
912.984	26.75
913.415	18.45
913.847	17.85
914.278	6.65
914.709	3.05
915.14	10.05
915.571	12.35
916.002	9.35
916.433	17.65
916.864	14.15
917.295	7.95
917.726	14.05
918.157	12.65
918.587	21.65
919.018	8.75
919.449	16.05
919.88	15.45
920.311	20.55
920.741	30.95
921.172	116.55
921.603	106.35
922.033	48.35
922.464	33.45
922.895	12.65
923.325	9.05
923.756	8.75
924.186	2.75
924.617	17.15
925.047	16.45
925.478	17.75
925.908	21.05
926.338	12.35
926.769	5.25
927.199	15.15
927.629	5.95
928.06	4.45
928.49	2.75
928.92	-0.65
929.35	-0.65
929.78	1.55
930.21	0.25
930.641	12.35
931.071	3.75
931.501	1.45
931.931	3.75
932.361	6.45
932.791	-2.85
933.221	2.35
933.651	0.85
934.08	14.65
934.51	25.45
934.94	2.75
935.37	4.65
935.8	12.85
936.229	1.55
936.659	7.05
937.089	0.15
937.519	9.65
937.948	21.95
938.378	12.55
938.807	-1.85
939.237	2.65
939.666	10.85
940.096	-4.25
940.525	-5.25
940.955	1.15
941.384	-1.75
941.814	-3.45
942.243	-1.85
942.672	2.25
943.102	-10.15
943.531	-1.15
943.96	3.05
944.39	-1.35
944.819	2.65
945.248	0.15
945.677	1.75
946.106	2.95
946.535	3.35
946.964	-3.35
947.393	-0.15
947.822	3.55
948.251	-5.05
948.68	-1.25
949.109	3.55
949.538	6.05
949.967	-2.15
950.396	-1.55
950.825	-1.75
951.254	-1.15
951.682	-9.35
952.111	-4.55
952.54	4.95
952.969	-6.25
953.397	-8.65
953.826	-1.85
954.254	-7.95
954.683	2.35
955.112	-5.25
955.54	-7.05
955.969	-0.95
956.397	1.05
956.826	0.05
957.254	-0.15
957.682	1.05
958.111	0.85
958.539	-1.35
958.967	-2.55
959.396	-4.15
959.824	2.75
960.252	4.25
960.68	-7.85
961.109	-9.35
961.537	-6.05
961.965	-3.55
962.393	-6.75
962.821	-5.35
963.249	-4.75
963.677	3.35
964.105	4.25
964.533	29.45
964.961	26.55
965.389	11.95
965.817	9.65
966.245	-6.25
966.672	-5.45
967.1	-7.95
967.528	-3.35
967.956	-4.75
968.383	-1.65
968.811	0.05
969.239	-2.45
969.666	-5.65
970.094	-3.15
970.522	-2.65
970.949	5.15
971.377	-0.45
971.804	-2.05
972.232	-6.05
972.659	-3.15
973.087	-10.15
973.514	-6.35
973.941	-11.75
974.369	-0.75
974.796	-1.25
975.223	-1.15
975.651	-1.75
976.078	-4.75
976.505	-4.05
976.932	-1.65
977.359	10.75
977.786	11.05
978.214	-0.55
978.641	-8.85
979.068	-5.05
979.495	-3.75
979.922	-2.55
980.349	-4.05
980.776	-1.95
981.202	-2.55
981.629	-0.05
982.056	-1.65
982.483	-4.65
982.91	1.65
983.337	-6.15
983.763	0.25
984.19	-2.35
984.617	-9.65
985.043	-6.95
985.47	-4.25
985.897	-6.15
986.323	-6.65
986.75	1.05
987.176	-9.95
987.603	-4.85
988.029	5.25
988.456	-5.95
988.882	1.05
989.308	-3.45
989.735	-4.95
990.161	-0.45
990.587	-6.15
991.014	0.35
991.44	4.95
991.866	-5.35
992.292	-8.45
992.719	3.45
993.145	-3.65
993.571	-14.55
993.997	-10.05
994.423	-8.25
994.849	-12.15
995.275	-3.35
995.701	2.65
996.127	-2.75
996.553	-2.15
996.979	-9.35
997.405	-5.85
997.83	-10.65
998.256	-8.15
998.682	-7.95
999.108	-6.25
999.534	-0.05
999.959	-1.65
1000.385	-6.75
1000.811	-1.85
1001.236	-12.65
1001.662	-9.05
1002.087	-9.55
1002.513	-7.65
1002.938	-1.75
1003.364	-4.85
1003.789	-3.95
1004.215	5.75
1004.64	-2.55
1005.066	-0.85
1005.491	-1.05
1005.916	-4.35
1006.342	-5.25
1006.767	-10.95
1007.192	1.05
1007.617	-6.15
1008.042	-0.85
1008.468	-14.15
1008.893	-5.85
1009.318	-4.35
1009.743	-4.85
1010.168	0.65
1010.593	-8.35
1011.018	-4.15
1011.443	-6.85
1011.868	-0.65
1012.293	-4.85
1012.718	-8.35
1013.143	-3.45
1013.567	3.05
1013.992	-4.85
1014.417	-10.65
1014.842	3.55
1015.267	-5.35
1015.691	2.95
1016.116	3.65
1016.541	-2.55
1016.965	5.75
1017.39	-0.75
1017.814	-4.25
1018.239	-7.05
1018.663	-8.15
1019.088	-10.85
1019.512	-1.95
1019.937	-4.05
1020.361	-6.55
1020.785	-13.95
1021.21	-5.25
1021.634	0.05
1022.058	1.85
1022.483	-0.55
1022.907	-5.35
1023.331	-0.85
1023.755	-4.65
1024.179	-1.55
1024.604	-5.15
1025.028	-4.85
1025.452	-4.95
1025.876	-1.25
1026.3	-0.05
1026.724	-11.95
1027.148	-6.55
1027.572	-7.65
1027.996	-9.05
1028.42	-0.15
1028.843	-5.05
1029.267	-4.95
1029.691	-1.55
1030.115	-4.85
1030.539	-11.35
1030.962	-1.75
1031.386	-11.15
1031.81	-0.75
1032.233	-3.65
1032.657	-5.85
1033.08	-1.55
1033.504	-1.65
1033.927	-6.75
1034.351	-0.45
1034.774	-2.95
1035.198	-1.65
1035.621	-2.45
1036.045	-7.85
1036.468	-0.65
1036.891	-16.55
1037.315	-9.45
1037.738	-12.35
1038.161	6.65
1038.584	-5.55
1039.008	-8.15
1039.431	-1.45
1039.854	-0.65
1040.277	-5.55
1040.7	-7.35
1041.123	-0.25
1041.546	-9.65
1041.969	-2.15
1042.392	-10.55
1042.815	-3.55
1043.238	1.05
1043.661	-0.65
1044.084	-4.65
1044.507	-9.95
1044.93	-7.55
1045.352	-8.25
1045.775	-7.95
1046.198	-0.25
1046.621	-1.85
1047.043	0.55
1047.466	6.45
1047.889	-1.55
1048.311	-5.15
1048.734	-2.25
1049.156	-2.65
1049.579	-2.05
1050.001	-3.85
1050.424	-5.25
1050.846	1.85
1051.269	-1.65
1051.691	-6.65
1052.113	-6.05
1052.536	-2.85
1052.958	-0.75
1053.38	-10.55
1053.802	-13.45
1054.225	-3.85
1054.647	-7.15
1055.069	-9.45
1055.491	4.55
1055.913	-6.15
1056.335	-2.45
1056.757	-9.65
1057.179	-9.35
1057.601	-9.85
1058.023	-4.15
1058.445	-5.75
1058.867	-4.15
1059.289	-1.25
1059.711	-3.25
1060.133	-4.05
1060.555	-3.15
1060.976	-13.85
1061.398	-5.25
1061.82	-13.75
1062.241	-7.75
1062.663	-8.65
1063.085	-2.45
1063.506	2.55
1063.928	3.25
1064.35	0.65
1064.771	-10.35
1065.193	-4.95
1065.614	-11.45
1066.035	-3.65
1066.457	-8.45
1066.878	-1.55
1067.3	-7.15
1067.721	-2.45
1068.142	-2.45
1068.564	-8.85
1068.985	-2.45
1069.406	-4.35
1069.827	-7.95
1070.248	3.45
1070.67	-8.35
1071.091	-5.15
1071.512	-9.05
1071.933	-10.85
1072.354	-5.55
1072.775	-2.85
1073.196	-9.15
1073.617	-5.35
1074.038	-9.35
1074.459	-7.25
1074.88	-11.55
1075.3	-0.55
1075.721	-3.15
1076.142	2.45
1076.563	-3.25
1076.983	-12.05
1077.404	-8.85
1077.825	-12.25
1078.246	-6.25
1078.666	-10.85
1079.087	0.35
1079.507	-4.05
1079.928	0.85
1080.348	0.75
1080.769	-8.15
1081.189	-3.05
1081.61	-3.85
1082.03	-10.45
1082.451	-7.75
1082.871	-2.75
1083.291	-5.15
1083.711	-7.75
1084.132	-9.75
1084.552	-3.85
1084.972	-1.35
1085.392	-11.55
1085.813	-8.85
1086.233	-13.95
1086.653	-7.05
1087.073	-11.75
1087.493	-5.15
1087.913	-8.95
1088.333	-4.35
1088.753	-8.55
1089.173	2.15
1089.593	-2.45
1090.013	-3.65
1090.433	2.05
1090.852	-5.35
1091.272	-11.15
1091.692	-5.45
1092.112	-6.55
1092.531	-13.85
1092.951	-12.35
1093.371	-1.75
1093.79	2.75
1094.21	-8.95
1094.63	-6.25
1095.049	-2.35
1095.469	0.85
1095.888	-11.45
1096.308	0.95
1096.727	4.95
1097.146	-5.25
1097.566	4.05
1097.985	-6.45
1098.405	-4.45
1098.824	-6.25
1099.243	-8.75
1099.662	-12.85
1100.082	-4.05
1100.501	-4.45
1100.92	-8.55
1101.339	-6.15
1101.758	-5.75
