Data from 20171114-ORNL-Ar_H_NY_Subt18_08-08-53-083.txt Node
Date: Tue Nov 14 08:08:53 EST 2017
User: Ender
Spectrometer: HR+D1039
Trigger mode: 0
Integration Time (sec): 2.730000E-2
Scans to average: 10
Electric dark correction enabled: true
Nonlinearity correction enabled: false
Boxcar width: 0
XAxis mode: Wavelengths
Number of Pixels in Spectrum: 2048
>>>>>Begin Spectral Data<<<<<
187.836	-5.46
188.309	-5.46
188.782	-5.46
189.255	-3.96
189.728	-2.56
190.201	6.34
190.674	4.24
191.147	2.24
191.619	-7.86
192.092	-1.26
192.565	5.44
193.038	2.44
193.511	-1.06
193.984	-0.06
194.456	-1.56
194.929	3.44
195.402	-4.26
195.874	3.84
196.347	-0.76
196.82	-2.16
197.292	6.64
197.765	-2.86
198.237	-4.86
198.71	1.34
199.182	2.84
199.655	2.74
200.127	0.74
200.6	1.14
201.072	2.14
201.544	-0.26
202.017	3.44
202.489	5.94
202.961	4.84
203.433	-3.76
203.906	-7.56
204.378	-10.76
204.85	0.34
205.322	-6.46
205.794	1.44
206.266	-3.06
206.739	-7.36
207.211	1.64
207.683	-8.86
208.155	-1.96
208.627	-7.16
209.099	1.84
209.57	-5.76
210.042	-5.46
210.514	1.44
210.986	4.64
211.458	-5.46
211.93	-5.26
212.402	2.34
212.873	-7.36
213.345	-8.26
213.817	-12.56
214.288	-1.36
214.76	-12.16
215.232	-4.16
215.703	-3.46
216.175	-1.96
216.646	-2.76
217.118	-7.86
217.589	-1.76
218.061	0.44
218.532	-6.06
219.004	3.54
219.475	0.24
219.946	2.64
220.418	-9.56
220.889	1.04
221.36	-0.16
221.832	-6.56
222.303	-5.96
222.774	-0.06
223.245	-8.36
223.717	-4.96
224.188	-4.56
224.659	-4.46
225.13	-0.56
225.601	-0.56
226.072	1.34
226.543	0.84
227.014	0.54
227.485	-1.36
227.956	-5.66
228.427	-4.86
228.898	0.34
229.369	-0.66
229.839	-0.96
230.31	-10.96
230.781	0.64
231.252	2.34
231.722	-4.86
232.193	-5.06
232.664	-2.86
233.135	1.64
233.605	-2.66
234.076	-7.26
234.546	-4.96
235.017	-0.26
235.487	-0.16
235.958	-3.66
236.428	-3.96
236.899	-3.16
237.369	2.04
237.84	-4.96
238.31	5.74
238.78	3.94
239.251	-2.86
239.721	-6.56
240.191	-8.16
240.662	-1.06
241.132	-0.76
241.602	-12.26
242.072	-8.36
242.542	3.44
243.013	-3.66
243.483	0.04
243.953	-0.36
244.423	-4.56
244.893	-1.66
245.363	0.04
245.833	-1.86
246.303	-6.06
246.773	3.94
247.243	-5.76
247.712	0.64
248.182	5.14
248.652	2.94
249.122	-11.66
249.592	-0.76
250.061	0.54
250.531	6.74
251.001	1.34
251.471	1.74
251.94	14.34
252.41	-1.56
252.879	-1.96
253.349	12.14
253.818	2.04
254.288	1.44
254.757	-0.26
255.227	-4.46
255.696	2.24
256.166	4.04
256.635	-2.46
257.105	3.04
257.574	0.74
258.043	2.34
258.513	-5.26
258.982	4.44
259.451	-3.26
259.92	3.34
260.389	1.14
260.859	9.34
261.328	-2.26
261.797	4.34
262.266	4.04
262.735	9.54
263.204	1.14
263.673	1.64
264.142	4.24
264.611	-1.96
265.08	-5.06
265.549	2.14
266.018	6.54
266.487	-1.26
266.955	-7.06
267.424	-3.46
267.893	6.54
268.362	-0.36
268.83	4.14
269.299	9.04
269.768	-2.96
270.236	0.44
270.705	4.24
271.174	-2.56
271.642	-0.06
272.111	0.94
272.579	1.04
273.048	3.44
273.516	-3.16
273.985	6.74
274.453	10.24
274.922	13.34
275.39	4.44
275.858	0.34
276.327	4.94
276.795	15.04
277.263	0.34
277.731	9.44
278.2	12.24
278.668	10.24
279.136	15.14
279.604	-0.16
280.072	1.34
280.54	8.04
281.008	5.44
281.477	11.14
281.945	9.84
282.413	8.34
282.881	9.14
283.348	0.14
283.816	5.24
284.284	6.54
284.752	15.04
285.22	9.04
285.688	8.64
286.156	6.34
286.623	17.74
287.091	5.34
287.559	12.14
288.026	11.04
288.494	4.94
288.962	2.64
289.429	10.34
289.897	12.44
290.364	10.44
290.832	16.04
291.3	10.94
291.767	14.64
292.234	17.74
292.702	8.54
293.169	9.74
293.637	12.94
294.104	19.84
294.571	0.74
295.039	7.64
295.506	9.44
295.973	15.34
296.44	9.84
296.908	10.44
297.375	10.04
297.842	17.94
298.309	11.44
298.776	4.74
299.243	10.84
299.71	7.04
300.177	16.74
300.644	15.44
301.111	18.64
301.578	20.14
302.045	12.14
302.512	20.04
302.979	20.24
303.446	14.04
303.913	19.24
304.379	15.14
304.846	22.04
305.313	15.34
305.78	16.84
306.246	18.84
306.713	23.84
307.18	21.64
307.646	21.04
308.113	22.94
308.579	19.24
309.046	21.44
309.512	22.84
309.979	9.24
310.445	21.44
310.912	20.44
311.378	28.24
311.845	24.44
312.311	29.24
312.777	24.94
313.244	25.14
313.71	29.94
314.176	20.04
314.642	19.84
315.109	27.24
315.575	29.04
316.041	30.84
316.507	26.04
316.973	29.34
317.439	27.04
317.905	28.34
318.371	26.64
318.837	31.44
319.303	23.84
319.769	26.54
320.235	26.74
320.701	26.54
321.167	30.94
321.633	21.44
322.099	27.04
322.564	34.44
323.03	31.54
323.496	26.44
323.962	27.94
324.427	29.04
324.893	32.54
325.359	29.24
325.824	31.94
326.29	32.94
326.755	31.14
327.221	27.24
327.686	36.04
328.152	36.24
328.617	37.04
329.083	42.54
329.548	43.74
330.014	43.64
330.479	32.04
330.944	39.04
331.41	32.54
331.875	42.14
332.34	30.44
332.805	36.64
333.271	37.44
333.736	32.34
334.201	42.44
334.666	46.84
335.131	45.64
335.596	45.34
336.061	44.04
336.526	37.64
336.991	39.84
337.456	49.74
337.921	39.44
338.386	41.44
338.851	36.14
339.316	41.04
339.781	37.44
340.246	45.14
340.711	44.74
341.175	47.24
341.64	35.24
342.105	48.84
342.569	49.14
343.034	47.54
343.499	46.14
343.963	42.64
344.428	57.64
344.893	56.84
345.357	47.64
345.822	52.04
346.286	60.34
346.751	59.24
347.215	53.14
347.679	67.24
348.144	79.54
348.608	75.94
349.073	61.74
349.537	63.74
350.001	70.64
350.465	77.24
350.93	68.54
351.394	69.74
351.858	69.54
352.322	73.54
352.786	70.94
353.25	88.14
353.715	82.24
354.179	79.84
354.643	99.04
355.107	111.44
355.571	90.54
356.035	85.94
356.498	92.94
356.962	96.24
357.426	103.94
357.89	94.14
358.354	76.94
358.818	75.14
359.281	63.44
359.745	66.54
360.209	74.04
360.673	58.34
361.136	74.14
361.6	73.94
362.064	73.44
362.527	74.24
362.991	80.34
363.454	73.04
363.918	77.94
364.381	71.74
364.845	80.24
365.308	74.34
365.772	78.24
366.235	69.94
366.698	75.44
367.162	76.04
367.625	82.54
368.088	79.84
368.552	71.54
369.015	81.74
369.478	84.94
369.941	88.54
370.404	81.84
370.867	91.94
371.331	96.04
371.794	97.64
372.257	82.04
372.72	91.84
373.183	92.94
373.646	83.54
374.109	88.24
374.572	93.74
375.035	91.44
375.497	102.64
375.96	95.84
376.423	95.74
376.886	108.04
377.349	104.04
377.811	96.64
378.274	100.14
378.737	90.64
379.199	97.84
379.662	102.04
380.125	104.94
380.587	96.94
381.05	104.94
381.512	102.54
381.975	113.74
382.437	112.14
382.9	107.14
383.362	120.74
383.825	120.44
384.287	115.04
384.75	112.54
385.212	113.64
385.674	122.94
386.136	122.34
386.599	111.54
387.061	113.24
387.523	115.24
387.985	118.04
388.447	128.14
388.91	118.84
389.372	121.74
389.834	121.04
390.296	123.04
390.758	118.44
391.22	126.64
391.682	143.44
392.144	156.04
392.606	142.54
393.068	133.94
393.529	146.84
393.991	134.44
394.453	123.24
394.915	122.64
395.377	140.14
395.838	134.94
396.3	128.24
396.762	137.24
397.224	131.24
397.685	126.34
398.147	125.94
398.608	129.64
399.07	118.64
399.531	129.94
399.993	139.84
400.454	150.54
400.916	144.94
401.377	140.14
401.839	149.04
402.3	158.34
402.762	155.34
403.223	168.24
403.684	167.54
404.145	155.74
404.607	153.74
405.068	159.44
405.529	154.74
405.99	177.54
406.451	167.64
406.913	176.24
407.374	159.44
407.835	159.14
408.296	159.24
408.757	163.64
409.218	173.84
409.679	179.94
410.14	171.14
410.601	167.04
411.062	174.54
411.522	170.84
411.983	176.24
412.444	172.34
412.905	177.34
413.366	176.64
413.826	194.64
414.287	225.54
414.748	262.24
415.208	241.84
415.669	208.64
416.13	207.14
416.59	204.44
417.051	215.94
417.511	217.94
417.972	232.14
418.432	247.74
418.893	285.94
419.353	250.74
419.814	201.04
420.274	185.94
420.734	182.54
421.195	202.74
421.655	194.44
422.115	191.94
422.576	196.54
423.036	200.54
423.496	208.44
423.956	215.84
424.416	226.84
424.876	271.64
425.336	255.94
425.797	257.84
426.257	256.84
426.717	240.64
427.177	230.24
427.637	223.04
428.097	237.74
428.556	239.14
429.016	267.74
429.476	259.14
429.936	268.44
430.396	266.04
430.856	287.44
431.315	301.64
431.775	334.44
432.235	365.74
432.694	342.34
433.154	354.84
433.614	383.24
434.073	326.54
434.533	282.24
434.993	257.54
435.452	274.04
435.912	287.04
436.371	277.74
436.83	275.14
437.29	259.24
437.749	249.74
438.209	247.34
438.668	267.84
439.127	287.14
439.587	264.14
440.046	250.64
440.505	257.94
440.964	277.44
441.424	323.94
441.883	310.04
442.342	266.74
442.801	231.34
443.26	226.74
443.719	226.44
444.178	230.34
444.637	222.94
445.096	230.74
445.555	221.94
446.014	226.94
446.473	236.14
446.932	234.34
447.391	232.14
447.849	237.04
448.308	228.24
448.767	228.84
449.226	244.14
449.685	241.64
450.143	256.34
450.602	242.44
451.061	238.64
451.519	240.24
451.978	243.34
452.436	243.74
452.895	242.84
453.353	256.34
453.812	244.94
454.27	249.84
454.729	244.94
455.187	247.24
455.646	254.94
456.104	254.44
456.562	271.24
457.021	275.54
457.479	265.94
457.937	275.14
458.395	272.14
458.854	250.24
459.312	263.74
459.77	282.24
460.228	260.74
460.686	252.64
461.144	257.34
461.602	251.44
462.06	258.04
462.518	260.44
462.976	259.64
463.434	267.34
463.892	271.14
464.35	286.24
464.808	295.14
465.266	270.14
465.724	276.04
466.181	283.74
466.639	285.74
467.097	294.04
467.555	311.64
468.012	307.04
468.47	315.24
468.928	337.44
469.385	350.24
469.843	356.94
470.3	359.24
470.758	372.74
471.215	396.24
471.673	419.44
472.13	415.94
472.588	430.04
473.045	385.54
473.503	400.34
473.96	400.94
474.417	414.34
474.875	442.34
475.332	484.74
475.789	477.14
476.246	477.74
476.704	499.84
477.161	515.34
477.618	526.14
478.075	565.64
478.532	620.04
478.989	689.34
479.446	791.44
479.903	751.44
480.36	791.14
480.817	837.94
481.274	927.24
481.731	1019.14
482.188	1091.24
482.645	1208.84
483.102	1293.44
483.558	1417.84
484.015	1467.94
484.472	1436.24
484.929	1391.24
485.385	1355.54
485.842	1317.94
486.299	1269.34
486.755	1240.14
487.212	1064.14
487.668	914.84
488.125	838.94
488.582	771.64
489.038	750.74
489.494	714.14
489.951	689.94
490.407	665.34
490.864	654.74
491.32	653.24
491.776	651.94
492.233	659.24
492.689	623.44
493.145	613.34
493.602	605.44
494.058	625.84
494.514	628.54
494.97	645.04
495.426	654.24
495.882	627.14
496.338	615.94
496.794	632.24
497.251	624.74
497.707	639.54
498.163	644.94
498.618	654.74
499.074	653.84
499.53	674.14
499.986	675.04
500.442	652.44
500.898	637.24
501.354	625.64
501.809	641.24
502.265	636.34
502.721	647.74
503.177	649.14
503.632	662.34
504.088	658.34
504.543	683.34
504.999	713.94
505.455	674.74
505.91	650.74
506.366	654.24
506.821	651.04
507.277	642.14
507.732	648.94
508.187	647.74
508.643	651.54
509.098	647.44
509.553	682.94
510.009	690.24
510.464	695.24
510.919	701.04
511.375	715.74
511.83	726.54
512.285	745.84
512.74	782.14
513.195	797.14
513.65	789.24
514.105	783.04
514.56	784.94
515.015	801.04
515.47	811.24
515.925	800.44
516.38	805.14
516.835	820.14
517.29	797.94
517.745	789.14
518.2	777.54
518.655	769.34
519.109	757.04
519.564	763.54
520.019	750.14
520.474	736.54
520.928	748.84
521.383	739.04
521.838	739.94
522.292	724.64
522.747	735.24
523.201	728.84
523.656	721.74
524.11	719.14
524.565	719.14
525.019	710.14
525.474	718.44
525.928	725.04
526.382	724.54
526.837	721.84
527.291	721.24
527.745	715.74
528.2	718.54
528.654	717.04
529.108	701.14
529.562	714.24
530.016	716.34
530.47	713.74
530.925	711.14
531.379	714.34
531.833	718.14
532.287	711.34
532.741	723.34
533.195	724.94
533.649	739.24
534.103	726.94
534.556	725.44
535.01	731.24
535.464	723.64
535.918	737.34
536.372	738.74
536.826	737.64
537.279	726.44
537.733	727.24
538.187	736.24
538.64	733.54
539.094	740.04
539.548	755.24
540.001	738.14
540.455	745.94
540.908	747.24
541.362	749.94
541.815	765.44
542.269	777.04
542.722	779.64
543.175	792.34
543.629	793.34
544.082	810.44
544.536	818.44
544.989	814.44
545.442	820.14
545.895	814.74
546.349	831.64
546.802	822.04
547.255	827.84
547.708	827.44
548.161	840.34
548.614	848.44
549.067	860.44
549.52	854.34
549.973	843.84
550.426	843.84
550.879	824.04
551.332	824.34
551.785	830.94
552.238	839.44
552.691	839.04
553.144	869.24
553.596	886.94
554.049	898.24
554.502	927.54
554.955	944.84
555.407	939.34
555.86	927.34
556.313	924.14
556.765	920.14
557.218	906.84
557.67	911.14
558.123	898.04
558.576	908.84
559.028	916.44
559.48	920.04
559.933	899.14
560.385	877.34
560.838	843.34
561.29	816.24
561.742	822.94
562.195	803.34
562.647	797.94
563.099	806.94
563.551	801.94
564.004	815.44
564.456	797.44
564.908	792.34
565.36	771.64
565.812	757.24
566.264	748.64
566.716	744.64
567.168	732.34
567.62	734.04
568.072	731.34
568.524	725.34
568.976	717.24
569.428	702.54
569.88	702.94
570.332	710.24
570.784	717.14
571.235	719.14
571.687	721.74
572.139	735.44
572.59	747.04
573.042	740.44
573.494	739.34
573.945	730.84
574.397	710.14
574.849	717.54
575.3	726.14
575.752	704.74
576.203	709.54
576.655	717.24
577.106	689.84
577.557	692.34
578.009	707.34
578.46	697.54
578.912	699.04
579.363	691.94
579.814	704.34
580.265	685.24
580.717	706.84
581.168	697.84
581.619	708.84
582.07	701.64
582.521	701.94
582.972	687.44
583.423	699.54
583.875	705.34
584.326	714.94
584.777	734.34
585.227	760.84
585.678	771.14
586.129	792.34
586.58	820.34
587.031	855.44
587.482	888.34
587.933	928.94
588.384	890.24
588.834	832.34
589.285	798.44
589.736	808.74
590.186	805.34
590.637	800.14
591.088	785.84
591.538	765.24
591.989	757.94
592.439	754.24
592.89	746.94
593.34	741.64
593.791	734.74
594.241	723.64
594.692	726.54
595.142	722.54
595.593	724.84
596.043	732.64
596.493	740.24
596.943	735.34
597.394	754.64
597.844	745.84
598.294	772.74
598.744	785.64
599.195	828.34
599.645	857.24
600.095	903.54
600.545	956.74
600.995	1003.44
601.445	1067.24
601.895	1141.04
602.345	1176.14
602.795	1150.64
603.245	1117.94
603.695	1050.54
604.145	1006.74
604.594	951.44
605.044	892.84
605.494	845.44
605.944	797.34
606.393	778.14
606.843	766.94
607.293	759.74
607.743	758.64
608.192	769.14
608.642	792.54
609.091	794.34
609.541	793.04
609.99	791.54
610.44	784.14
610.889	746.64
611.339	725.14
611.788	714.14
612.238	720.14
612.687	731.14
613.136	726.24
613.586	731.34
614.035	735.14
614.484	736.54
614.933	748.34
615.383	736.04
615.832	733.44
616.281	737.84
616.73	699.04
617.179	684.24
617.628	673.74
618.077	660.64
618.526	648.24
618.975	640.94
619.424	648.84
619.873	638.44
620.322	646.74
620.771	624.84
621.22	626.64
621.669	616.14
622.118	613.54
622.567	606.24
623.015	593.24
623.464	588.74
623.913	577.04
624.361	572.34
624.81	574.44
625.259	572.44
625.707	584.34
626.156	585.24
626.604	590.84
627.053	591.94
627.501	584.64
627.95	596.24
628.398	604.44
628.847	600.14
629.295	600.74
629.744	600.94
630.192	593.84
630.64	589.84
631.089	573.24
631.537	561.24
631.985	556.74
632.433	559.54
632.881	558.14
633.33	563.94
633.778	560.54
634.226	546.14
634.674	569.34
635.122	570.64
635.57	579.14
636.018	586.34
636.466	589.14
636.914	578.04
637.362	592.44
637.81	597.34
638.258	610.84
638.705	613.54
639.153	641.14
639.601	643.04
640.049	673.44
640.497	709.94
640.944	718.24
641.392	678.74
641.84	639.64
642.287	606.64
642.735	592.94
643.182	594.84
643.63	580.04
644.078	582.24
644.525	582.54
644.973	608.74
645.42	619.64
645.867	641.64
646.315	658.54
646.762	680.74
647.21	695.64
647.657	736.84
648.104	765.34
648.551	784.44
648.999	845.14
649.446	923.64
649.893	1008.14
650.34	1159.94
650.787	1370.94
651.234	1688.64
651.682	2199.04
652.129	2993.74
652.576	4235.64
653.023	6187.14
653.47	8310.64
653.917	10261.54
654.363	11683.94
654.81	12838.74
655.257	12155.94
655.704	8078.94
656.151	4864.94
656.598	3200.94
657.044	2292.54
657.491	1783.54
657.938	1444.84
658.385	1214.34
658.831	1067.14
659.278	955.34
659.724	856.14
660.171	795.44
660.618	729.54
661.064	695.94
661.511	680.04
661.957	668.84
662.404	661.94
662.85	666.64
663.296	636.54
663.743	575.04
664.189	562.94
664.635	557.64
665.082	550.04
665.528	550.74
665.974	548.94
666.42	531.84
666.867	522.34
667.313	511.24
667.759	485.94
668.205	471.34
668.651	467.44
669.097	473.34
669.543	464.54
669.989	460.34
670.435	464.94
670.881	460.54
671.327	473.24
671.773	490.94
672.219	525.14
672.665	579.24
673.11	624.74
673.556	662.14
674.002	706.84
674.448	683.04
674.893	581.04
675.339	502.44
675.785	468.84
676.23	441.14
676.676	415.54
677.122	408.94
677.567	393.84
678.013	395.64
678.458	374.14
678.904	385.54
679.349	368.54
679.794	371.14
680.24	370.84
680.685	378.24
681.131	365.84
681.576	367.94
682.021	373.64
682.466	370.94
682.912	371.14
683.357	375.64
683.802	409.54
684.247	440.54
684.692	482.04
685.137	535.64
685.583	576.14
686.028	588.94
686.473	552.64
686.918	471.74
687.363	443.84
687.807	410.84
688.252	389.44
688.697	379.24
689.142	361.54
689.587	351.54
690.032	341.74
690.477	370.64
690.921	368.24
691.366	408.44
691.811	427.34
692.255	456.44
692.7	481.64
693.145	542.34
693.589	770.94
694.034	1243.84
694.478	1657.74
694.923	1839.34
695.367	2378.84
695.812	1266.44
696.256	533.64
696.701	391.34
697.145	359.04
697.59	354.84
698.034	336.94
698.478	338.44
698.922	342.84
699.367	350.24
699.811	358.34
700.255	373.44
700.699	418.14
701.143	457.04
701.588	504.24
702.032	547.44
702.476	547.04
702.92	522.94
703.364	532.54
703.808	706.84
704.252	1152.84
704.696	1570.84
705.14	1784.14
705.584	2248.64
706.027	1126.84
706.471	557.24
706.915	424.34
707.359	372.44
707.803	342.04
708.246	332.84
708.69	329.64
709.134	328.54
709.577	333.04
710.021	334.84
710.465	321.34
710.908	317.14
711.352	318.64
711.795	349.74
712.239	374.34
712.682	417.24
713.126	434.04
713.569	476.44
714.012	379.34
714.456	326.14
714.899	306.44
715.342	290.14
715.786	280.04
716.229	267.74
716.672	267.64
717.115	265.74
717.558	266.54
718.002	265.34
718.445	273.04
718.888	306.64
719.331	311.44
719.774	329.64
720.217	322.34
720.66	297.84
721.103	286.84
721.546	273.84
721.989	266.54
722.432	250.44
722.874	248.04
723.317	246.24
723.76	248.24
724.203	276.54
724.645	343.34
725.088	478.94
725.531	608.84
725.974	679.04
726.416	582.34
726.859	328.14
727.301	262.64
727.744	246.94
728.187	242.44
728.629	259.84
729.071	257.94
729.514	279.74
729.956	293.44
730.399	306.24
730.841	303.34
731.283	290.84
731.726	282.94
732.168	281.54
732.61	292.64
733.053	303.44
733.495	335.94
733.937	371.34
734.379	425.34
734.821	468.34
735.263	592.64
735.705	923.94
736.148	1772.94
736.59	2799.44
737.032	3205.14
737.474	2625.74
737.916	878.64
738.357	469.64
738.799	358.54
739.241	323.94
739.683	304.14
740.125	308.94
740.567	324.84
741.008	339.24
741.45	333.54
741.892	339.24
742.334	363.94
742.775	381.24
743.217	366.74
743.658	293.14
744.1	274.34
744.542	292.24
744.983	342.24
745.425	368.44
745.866	359.44
746.307	302.24
746.749	301.54
747.19	352.54
747.632	498.44
748.073	997.34
748.514	2064.74
748.956	3072.34
749.397	3855.14
749.838	3183.34
750.279	3146.64
750.72	1596.84
751.162	600.84
751.603	344.24
752.044	272.84
752.485	239.74
752.926	226.64
753.367	218.24
753.808	209.14
754.249	211.54
754.69	198.84
755.131	198.34
755.572	203.24
756.013	191.54
756.453	197.84
756.894	207.94
757.335	211.74
757.776	205.54
758.216	211.04
758.657	215.34
759.098	213.74
759.538	246.34
759.979	286.84
760.42	414.84
760.86	800.34
761.301	2087.44
761.741	4900.14
762.182	6763.14
762.622	4780.34
763.063	1417.44
763.503	569.14
763.943	356.64
764.384	300.94
764.824	282.74
765.264	270.74
765.705	231.04
766.145	191.24
766.585	186.24
767.025	183.44
767.465	182.04
767.906	203.64
768.346	222.24
768.786	232.54
769.226	239.04
769.666	338.64
770.106	695.84
770.546	1754.44
770.986	2794.34
771.426	2484.14
771.866	843.64
772.306	353.94
772.745	219.04
773.185	177.54
773.625	173.94
774.065	160.74
774.505	170.24
774.944	234.24
775.384	408.44
775.824	647.74
776.263	626.44
776.703	315.04
777.142	168.74
777.582	144.44
778.021	136.74
778.461	135.64
778.9	130.84
779.34	137.24
779.779	121.54
780.219	116.14
780.658	109.74
781.097	119.54
781.537	123.34
781.976	123.04
782.415	119.74
782.855	117.14
783.294	104.94
783.733	113.94
784.172	114.04
784.611	111.74
785.05	113.94
785.489	115.14
785.928	123.44
786.367	129.44
786.806	127.84
787.245	138.14
787.684	141.84
788.123	154.84
788.562	150.74
789.001	133.34
789.44	126.44
789.879	126.44
790.317	128.14
790.756	142.34
791.195	136.14
791.634	159.64
792.072	223.54
792.511	406.94
792.95	1119.84
793.388	2256.14
793.827	2001.14
794.265	712.54
794.704	302.64
795.142	190.34
795.581	166.54
796.019	149.34
796.458	135.64
796.896	134.94
797.334	143.54
797.773	174.54
798.211	244.74
798.649	489.74
799.087	1122.84
799.526	1742.04
799.964	2195.84
800.402	2100.94
800.84	813.34
801.278	335.04
801.716	197.24
802.154	161.44
802.592	149.84
803.03	147.54
803.468	144.34
803.906	161.34
804.344	161.34
804.782	150.24
805.22	148.04
805.658	152.44
806.096	159.34
806.533	169.44
806.971	184.04
807.409	241.94
807.847	357.24
808.284	752.64
808.722	2072.34
809.16	3512.34
809.597	3485.24
810.035	5873.34
810.472	6035.44
810.91	2237.94
811.347	870.44
811.785	447.14
812.222	278.14
812.66	220.84
813.097	171.34
813.535	151.84
813.972	137.44
814.409	125.74
814.846	125.44
815.284	118.14
815.721	104.64
816.158	108.84
816.595	121.34
817.032	168.54
817.47	187.74
817.907	134.34
818.344	113.84
818.781	101.64
819.218	108.54
819.655	139.74
820.092	207.44
820.529	221.04
820.966	182.64
821.403	136.04
821.839	106.94
822.276	107.94
822.713	133.94
823.15	144.54
823.587	124.44
824.023	162.64
824.46	341.14
824.897	985.44
825.333	1427.44
825.77	630.24
826.206	246.94
826.643	151.84
827.08	116.44
827.516	85.54
827.953	86.84
828.389	91.44
828.825	73.34
829.262	70.04
829.698	67.84
830.135	68.24
830.571	67.54
831.007	62.84
831.443	66.24
831.88	66.64
832.316	65.74
832.752	62.34
833.188	76.14
833.624	64.44
834.06	68.74
834.497	69.94
834.933	75.64
835.369	82.14
835.805	80.54
836.241	87.84
836.677	81.64
837.112	101.54
837.548	120.74
837.984	143.04
838.42	229.74
838.856	558.64
839.292	1659.04
839.727	2420.54
840.163	1142.54
840.599	1039.24
841.034	2222.24
841.47	2216.54
841.906	827.24
842.341	359.34
842.777	220.24
843.212	224.74
843.648	205.24
844.083	123.34
844.519	88.84
844.954	72.04
845.39	64.44
845.825	56.04
846.261	59.54
846.696	60.54
847.131	63.14
847.566	67.04
848.002	46.14
848.437	59.74
848.872	66.04
849.307	73.34
849.742	94.34
850.177	202.04
850.613	617.64
851.048	934.64
851.483	408.64
851.918	171.44
852.353	96.24
852.788	58.94
853.223	55.74
853.657	59.84
854.092	54.44
854.527	47.44
854.962	44.34
855.397	50.44
855.832	57.64
856.266	43.34
856.701	37.84
857.136	38.74
857.57	45.54
858.005	57.94
858.44	63.34
858.874	50.84
859.309	52.94
859.743	46.54
860.178	44.64
860.612	48.54
861.047	57.44
861.481	78.04
861.915	74.64
862.35	53.84
862.784	36.84
863.218	37.24
863.653	35.14
864.087	48.54
864.521	56.64
864.955	71.34
865.39	168.34
865.824	185.24
866.258	132.04
866.692	179.24
867.126	185.84
867.56	116.94
867.994	59.14
868.428	43.34
868.862	49.34
869.296	56.24
869.73	64.74
870.164	66.44
870.598	54.84
871.031	43.54
871.465	35.64
871.899	35.94
872.333	25.84
872.766	32.94
873.2	23.84
873.634	30.94
874.067	31.24
874.501	30.74
874.935	41.44
875.368	34.04
875.802	28.34
876.235	26.64
876.669	24.14
877.102	25.14
877.535	27.04
877.969	26.04
878.402	28.44
878.836	16.84
879.269	25.54
879.702	25.94
880.135	26.04
880.569	28.84
881.002	20.14
881.435	24.64
881.868	20.64
882.301	23.14
882.734	23.44
883.167	27.64
883.601	24.54
884.034	24.34
884.467	14.84
884.899	26.74
885.332	21.94
885.765	21.34
886.198	18.14
886.631	19.54
887.064	23.54
887.497	19.74
887.929	26.14
888.362	20.34
888.795	18.84
889.228	15.54
889.66	24.14
890.093	18.64
890.526	21.24
890.958	21.64
891.391	19.44
891.823	25.44
892.256	17.54
892.688	13.54
893.121	23.74
893.553	17.34
893.985	25.64
894.418	25.44
894.85	17.24
895.282	21.04
895.715	17.84
896.147	19.34
896.579	17.44
897.011	14.54
897.444	23.44
897.876	12.44
898.308	17.34
898.74	17.14
899.172	15.74
899.604	23.44
900.036	23.24
900.468	12.74
900.9	11.34
901.332	17.94
901.764	12.84
902.196	20.34
902.628	16.74
903.06	13.54
903.491	29.34
903.923	22.74
904.355	21.04
904.787	25.04
905.218	22.14
905.65	23.14
906.082	14.94
906.513	17.14
906.945	14.94
907.376	9.14
907.808	22.54
908.239	26.04
908.671	21.54
909.102	23.84
909.534	32.44
909.965	51.64
910.397	105.04
910.828	342.74
911.259	497.14
911.691	236.64
912.122	109.94
912.553	53.14
912.984	34.84
913.415	28.44
913.847	26.74
914.278	18.94
914.709	11.84
915.14	18.64
915.571	16.54
916.002	14.74
916.433	24.54
916.864	21.84
917.295	19.04
917.726	26.04
918.157	16.04
918.587	32.74
919.018	20.34
919.449	22.24
919.88	26.84
920.311	33.24
920.741	55.24
921.172	181.74
921.603	157.24
922.033	81.74
922.464	48.74
922.895	21.84
923.325	25.64
923.756	14.44
924.186	14.34
924.617	24.34
925.047	26.64
925.478	29.24
925.908	27.74
926.338	17.14
926.769	11.64
927.199	19.04
927.629	7.24
928.06	16.04
928.49	17.84
928.92	18.64
929.35	12.84
929.78	12.44
930.21	9.24
930.641	7.24
931.071	4.84
931.501	5.54
931.931	12.14
932.361	11.24
932.791	10.04
933.221	6.74
933.651	7.64
934.08	15.94
934.51	33.44
934.94	14.94
935.37	10.34
935.8	15.24
936.229	10.64
936.659	5.24
937.089	7.24
937.519	10.14
937.948	24.84
938.378	17.04
938.807	9.74
939.237	6.44
939.666	6.34
940.096	-4.26
940.525	2.54
940.955	3.84
941.384	10.34
941.814	-2.16
942.243	4.04
942.672	4.84
943.102	1.64
943.531	3.04
943.96	4.84
944.39	4.14
944.819	0.44
945.248	5.64
945.677	4.84
946.106	8.14
946.535	4.24
946.964	0.64
947.393	6.14
947.822	3.94
948.251	-3.76
948.68	10.84
949.109	4.94
949.538	4.54
949.967	-3.86
950.396	3.04
950.825	0.44
951.254	-0.26
951.682	-10.56
952.111	8.74
952.54	8.84
952.969	-7.46
953.397	-4.46
953.826	-6.56
954.254	-3.06
954.683	-0.36
955.112	-7.46
955.54	-0.76
955.969	2.44
956.397	5.24
956.826	-2.86
957.254	4.34
957.682	8.94
958.111	7.84
958.539	5.14
958.967	1.14
959.396	-0.16
959.824	-0.56
960.252	6.44
960.68	-2.36
961.109	5.54
961.537	-5.16
961.965	-2.16
962.393	-1.16
962.821	-4.06
963.249	0.64
963.677	7.34
964.105	9.34
964.533	52.84
964.961	47.54
965.389	26.34
965.817	15.24
966.245	0.94
966.672	0.94
967.1	-2.86
967.528	6.84
967.956	-0.16
968.383	1.94
968.811	-0.26
969.239	0.44
969.666	-4.46
970.094	-0.46
970.522	4.84
970.949	2.34
971.377	3.84
971.804	0.84
972.232	2.14
972.659	-0.66
973.087	-2.96
973.514	-5.66
973.941	-4.16
974.369	9.44
974.796	3.14
975.223	3.34
975.651	2.64
976.078	-2.06
976.505	-1.36
976.932	4.84
977.359	26.14
977.786	17.44
978.214	1.24
978.641	-2.86
979.068	-0.86
979.495	-3.06
979.922	2.64
980.349	-0.16
980.776	3.84
981.202	-3.86
981.629	8.24
982.056	3.54
982.483	-1.76
982.91	6.34
983.337	-4.16
983.763	4.34
984.19	1.84
984.617	0.44
985.043	-6.76
985.47	-2.96
985.897	-5.66
986.323	-7.36
986.75	-0.16
987.176	1.34
987.603	1.14
988.029	-4.56
988.456	-2.06
988.882	-0.36
989.308	-6.76
989.735	1.34
990.161	-1.56
990.587	-5.56
991.014	-0.46
991.44	7.24
991.866	-1.36
992.292	-6.16
992.719	-4.16
993.145	2.24
993.571	-6.06
993.997	-4.16
994.423	5.14
994.849	-7.76
995.275	-0.06
995.701	2.64
996.127	-4.86
996.553	3.34
996.979	-4.26
997.405	-3.56
997.83	-0.66
998.256	-9.46
998.682	-5.36
999.108	-2.76
999.534	-1.36
999.959	-4.16
1000.385	-6.86
1000.811	5.84
1001.236	-3.26
1001.662	-6.76
1002.087	-10.96
1002.513	1.24
1002.938	-0.46
1003.364	2.84
1003.789	-2.06
1004.215	3.74
1004.64	-1.56
1005.066	2.44
1005.491	-4.96
1005.916	-4.46
1006.342	-0.56
1006.767	-2.96
1007.192	2.74
1007.617	-9.76
1008.042	-4.96
1008.468	-5.96
1008.893	-1.56
1009.318	-0.56
1009.743	0.74
1010.168	13.54
1010.593	4.54
1011.018	-2.26
1011.443	2.54
1011.868	3.74
1012.293	-8.06
1012.718	-6.36
1013.143	-0.46
1013.567	-0.66
1013.992	-0.16
1014.417	-11.46
1014.842	3.04
1015.267	-4.76
1015.691	-2.66
1016.116	1.34
1016.541	0.04
1016.965	2.34
1017.39	-3.66
1017.814	1.74
1018.239	-1.36
1018.663	-7.06
1019.088	-14.06
1019.512	-4.06
1019.937	-4.96
1020.361	-6.86
1020.785	-9.26
1021.21	-3.86
1021.634	-3.06
1022.058	-0.86
1022.483	7.14
1022.907	-7.06
1023.331	-1.76
1023.755	-2.86
1024.179	-1.26
1024.604	-1.16
1025.028	-5.16
1025.452	-6.76
1025.876	-3.46
1026.3	1.14
1026.724	-10.86
1027.148	0.24
1027.572	-9.56
1027.996	-3.66
1028.42	1.14
1028.843	-1.06
1029.267	-8.36
1029.691	-1.36
1030.115	-5.86
1030.539	-6.96
1030.962	-4.06
1031.386	-8.56
1031.81	1.64
1032.233	-0.06
1032.657	0.14
1033.08	-5.56
1033.504	-1.46
1033.927	-2.56
1034.351	-3.66
1034.774	-3.56
1035.198	-6.26
1035.621	1.24
1036.045	-6.36
1036.468	-1.56
1036.891	-10.06
1037.315	-10.46
1037.738	-9.66
1038.161	-3.26
1038.584	-0.76
1039.008	-4.36
1039.431	-1.16
1039.854	-0.36
1040.277	-9.16
1040.7	-7.96
1041.123	-4.26
1041.546	-6.16
1041.969	-0.26
1042.392	-0.16
1042.815	-2.26
1043.238	0.84
1043.661	2.74
1044.084	-9.46
1044.507	-8.46
1044.93	-7.76
1045.352	-6.06
1045.775	-3.06
1046.198	2.84
1046.621	2.24
1047.043	3.54
1047.466	0.34
1047.889	-5.16
1048.311	-8.06
1048.734	0.44
1049.156	0.94
1049.579	1.44
1050.001	-3.06
1050.424	3.44
1050.846	-8.86
1051.269	-5.36
1051.691	-5.56
1052.113	-5.86
1052.536	-0.36
1052.958	-1.26
1053.38	-3.86
1053.802	-6.66
1054.225	1.94
1054.647	-5.66
1055.069	-6.36
1055.491	-2.66
1055.913	-5.66
1056.335	-1.16
1056.757	-7.56
1057.179	-9.36
1057.601	-6.16
1058.023	-8.36
1058.445	-5.66
1058.867	-3.96
1059.289	-0.96
1059.711	-8.26
1060.133	-1.36
1060.555	-8.46
1060.976	-6.76
1061.398	-2.86
1061.82	-7.26
1062.241	-6.16
1062.663	-8.06
1063.085	-5.96
1063.506	2.94
1063.928	-2.46
1064.35	-5.36
1064.771	-11.86
1065.193	-2.86
1065.614	-4.16
1066.035	-5.76
1066.457	-7.96
1066.878	5.04
1067.3	-4.56
1067.721	-6.66
1068.142	-0.86
1068.564	-1.26
1068.985	-0.86
1069.406	-3.46
1069.827	-6.06
1070.248	1.14
1070.67	-2.96
1071.091	-3.36
1071.512	-5.46
1071.933	-5.06
1072.354	-3.66
1072.775	-3.86
1073.196	-1.96
1073.617	-2.56
1074.038	-8.46
1074.459	-3.36
1074.88	-5.56
1075.3	-1.46
1075.721	-3.56
1076.142	-2.06
1076.563	1.24
1076.983	-11.56
1077.404	-7.66
1077.825	-9.06
1078.246	-1.16
1078.666	-9.36
1079.087	-1.86
1079.507	-11.66
1079.928	0.54
1080.348	-0.06
1080.769	-5.06
1081.189	1.14
1081.61	-2.86
1082.03	-4.06
1082.451	-3.06
1082.871	-4.26
1083.291	-7.46
1083.711	-9.86
1084.132	-7.46
1084.552	-2.86
1084.972	1.84
1085.392	-7.46
1085.813	-0.36
1086.233	-7.46
1086.653	-9.76
1087.073	0.04
1087.493	-9.86
1087.913	-5.56
1088.333	-6.06
1088.753	1.84
1089.173	4.14
1089.593	3.94
1090.013	4.24
1090.433	7.14
1090.852	1.24
1091.272	1.24
1091.692	-4.76
1092.112	-7.46
1092.531	-6.16
1092.951	-12.96
1093.371	3.24
1093.79	1.14
1094.21	-8.06
1094.63	-16.66
1095.049	-9.76
1095.469	-4.46
1095.888	-3.56
1096.308	4.44
1096.727	4.84
1097.146	-1.26
1097.566	2.04
1097.985	-6.36
1098.405	4.14
1098.824	-7.06
1099.243	-4.46
1099.662	-6.26
1100.082	-1.96
1100.501	-7.26
1100.92	-8.26
1101.339	-7.06
1101.758	-4.26
