Data from 20171114-ORNL-Ar_H_NY_Subt18_08-03-30-397.txt Node
Date: Tue Nov 14 08:03:30 EST 2017
User: Ender
Spectrometer: HR+D1039
Trigger mode: 0
Integration Time (sec): 2.730000E-2
Scans to average: 10
Electric dark correction enabled: true
Nonlinearity correction enabled: false
Boxcar width: 0
XAxis mode: Wavelengths
Number of Pixels in Spectrum: 2048
>>>>>Begin Spectral Data<<<<<
187.836	-0.84
188.309	-0.84
188.782	-0.84
189.255	2.26
189.728	1.56
190.201	1.96
190.674	1.96
191.147	-0.44
191.619	-12.94
192.092	-0.14
192.565	4.36
193.038	3.26
193.511	1.96
193.984	-0.24
194.456	-1.64
194.929	-0.04
195.402	-1.24
195.874	0.26
196.347	3.26
196.82	-8.24
197.292	8.76
197.765	-2.44
198.237	-5.44
198.71	1.46
199.182	-0.44
199.655	5.06
200.127	0.56
200.6	-5.84
201.072	-1.04
201.544	-1.44
202.017	-0.94
202.489	-2.94
202.961	-0.74
203.433	-7.84
203.906	-8.84
204.378	-0.14
204.85	2.26
205.322	-7.44
205.794	-4.94
206.266	-2.64
206.739	-3.84
207.211	4.46
207.683	-9.94
208.155	-7.84
208.627	-10.64
209.099	-2.94
209.57	-13.24
210.042	-2.64
210.514	-4.74
210.986	-1.64
211.458	-9.94
211.93	-8.14
212.402	-5.54
212.873	-6.24
213.345	-9.94
213.817	-14.64
214.288	-6.44
214.76	-11.04
215.232	-8.14
215.703	-6.94
216.175	-3.04
216.646	-0.64
217.118	-4.24
217.589	-3.04
218.061	-4.94
218.532	-5.04
219.004	-7.14
219.475	-4.54
219.946	-8.34
220.418	-4.44
220.889	2.26
221.36	0.26
221.832	-5.44
222.303	-10.74
222.774	-3.04
223.245	-12.34
223.717	-5.94
224.188	-5.64
224.659	-1.24
225.13	-8.24
225.601	-9.84
226.072	2.66
226.543	-4.24
227.014	0.16
227.485	-3.84
227.956	-9.44
228.427	-3.34
228.898	6.86
229.369	1.36
229.839	1.06
230.31	-6.54
230.781	-0.24
231.252	-4.24
231.722	-8.94
232.193	-7.04
232.664	-6.94
233.135	-2.84
233.605	-6.44
234.076	-8.84
234.546	-2.64
235.017	1.46
235.487	-4.74
235.958	-0.74
236.428	-8.14
236.899	-6.94
237.369	-6.94
237.84	-4.74
238.31	-5.34
238.78	-6.14
239.251	-9.54
239.721	-8.14
240.191	-2.64
240.662	-5.64
241.132	-1.94
241.602	-11.64
242.072	-8.94
242.542	-3.14
243.013	-8.54
243.483	-1.54
243.953	-2.74
244.423	-6.04
244.893	-10.24
245.363	0.26
245.833	-2.94
246.303	-7.84
246.773	2.16
247.243	-2.64
247.712	-4.64
248.182	0.86
248.652	-1.24
249.122	-13.34
249.592	-4.94
250.061	-1.44
250.531	-0.44
251.001	-4.74
251.471	-3.94
251.94	4.66
252.41	-8.04
252.879	-5.74
253.349	2.76
253.818	-1.24
254.288	-4.34
254.757	-2.14
255.227	-9.34
255.696	-4.14
256.166	2.26
256.635	-1.44
257.105	1.56
257.574	-3.54
258.043	-6.24
258.513	-10.34
258.982	-1.34
259.451	-9.44
259.92	-0.04
260.389	-2.34
260.859	8.36
261.328	-1.14
261.797	-2.44
262.266	-8.04
262.735	-0.94
263.204	-7.04
263.673	-7.94
264.142	1.16
264.611	-13.64
265.08	-13.84
265.549	-12.14
266.018	-7.74
266.487	-10.54
266.955	-12.34
267.424	-11.14
267.893	-0.24
268.362	-12.94
268.83	-7.94
269.299	-3.24
269.768	-4.74
270.236	0.66
270.705	-8.14
271.174	-4.54
271.642	-3.14
272.111	-8.04
272.579	-3.34
273.048	-5.64
273.516	-5.64
273.985	0.26
274.453	-5.54
274.922	-0.54
275.39	-1.54
275.858	-15.04
276.327	-2.84
276.795	8.06
277.263	-5.44
277.731	5.66
278.2	-3.34
278.668	-6.94
279.136	-4.24
279.604	-11.54
280.072	-5.54
280.54	-1.64
281.008	-7.44
281.477	1.96
281.945	0.36
282.413	-0.64
282.881	2.66
283.348	-4.44
283.816	-1.64
284.284	-0.74
284.752	9.16
285.22	-3.14
285.688	4.56
286.156	-2.84
286.623	5.26
287.091	-4.74
287.559	-0.44
288.026	-1.44
288.494	-1.14
288.962	-9.54
289.429	-7.74
289.897	-4.54
290.364	-4.24
290.832	-7.54
291.3	-4.74
291.767	0.76
292.234	1.06
292.702	-2.54
293.169	1.06
293.637	4.36
294.104	-3.14
294.571	-7.64
295.039	-10.74
295.506	-7.94
295.973	-6.44
296.44	-4.04
296.908	-7.94
297.375	-10.14
297.842	-2.94
298.309	-2.54
298.776	-8.84
299.243	-3.94
299.71	-10.64
300.177	-1.74
300.644	2.46
301.111	-3.34
301.578	-3.14
302.045	-6.24
302.512	-2.94
302.979	3.26
303.446	-6.54
303.913	-1.24
304.379	-12.94
304.846	1.76
305.313	-2.24
305.78	-6.94
306.246	-1.44
306.713	-2.04
307.18	-2.64
307.646	-4.94
308.113	-4.54
308.579	-6.64
309.046	-6.94
309.512	-3.74
309.979	-13.64
310.445	-2.14
310.912	-6.94
311.378	10.26
311.845	-1.74
312.311	-4.14
312.777	1.86
313.244	-4.64
313.71	1.36
314.176	-9.04
314.642	-3.54
315.109	-9.54
315.575	-2.44
316.041	-5.34
316.507	-7.24
316.973	-1.24
317.439	-7.44
317.905	-0.34
318.371	-2.04
318.837	-0.04
319.303	-2.24
319.769	-3.44
320.235	-4.54
320.701	-0.14
321.167	1.86
321.633	-5.44
322.099	-5.74
322.564	4.16
323.03	-2.34
323.496	-5.44
323.962	-5.14
324.427	-6.64
324.893	-3.54
325.359	-1.04
325.824	-3.54
326.29	-1.84
326.755	-3.84
327.221	-3.04
327.686	-6.44
328.152	0.66
328.617	-4.84
329.083	-5.94
329.548	4.36
330.014	0.56
330.479	-10.14
330.944	-4.94
331.41	-3.14
331.875	-1.54
332.34	-1.34
332.805	1.56
333.271	-2.74
333.736	-6.44
334.201	2.66
334.666	1.06
335.131	1.26
335.596	-0.14
336.061	-4.34
336.526	-14.14
336.991	-4.34
337.456	7.16
337.921	-0.54
338.386	-4.14
338.851	-5.04
339.316	-2.84
339.781	1.36
340.246	0.46
340.711	-7.54
341.175	-2.44
341.64	-9.84
342.105	-4.34
342.569	-2.74
343.034	3.26
343.499	0.36
343.963	-6.24
344.428	6.96
344.893	-2.84
345.357	-2.14
345.822	-2.34
346.286	-3.54
346.751	2.56
347.215	-4.74
347.679	-8.34
348.144	1.86
348.608	-3.44
349.073	-7.14
349.537	-3.14
350.001	-1.94
350.465	-1.04
350.93	-8.64
351.394	7.06
351.858	-9.04
352.322	-1.84
352.786	-2.04
353.25	0.66
353.715	6.56
354.179	-2.44
354.643	3.66
355.107	1.86
355.571	-0.54
356.035	-3.64
356.498	-0.04
356.962	-5.54
357.426	-0.24
357.89	-1.14
358.354	1.76
358.818	0.46
359.281	-7.24
359.745	-9.14
360.209	0.96
360.673	-4.44
361.136	-0.84
361.6	3.76
362.064	1.96
362.527	-4.44
362.991	2.06
363.454	-6.24
363.918	-3.64
364.381	-5.44
364.845	-6.84
365.308	1.66
365.772	0.66
366.235	-2.24
366.698	-4.24
367.162	-0.64
367.625	-6.84
368.088	-0.64
368.552	-4.54
369.015	-7.44
369.478	0.96
369.941	3.46
370.404	-0.04
370.867	5.96
371.331	0.36
371.794	-1.94
372.257	-9.44
372.72	-0.74
373.183	2.56
373.646	0.56
374.109	-3.54
374.572	1.36
375.035	-9.24
375.497	-2.24
375.96	-3.04
376.423	-8.14
376.886	-3.74
377.349	-7.64
377.811	-4.04
378.274	-0.74
378.737	0.06
379.199	-0.34
379.662	-2.84
380.125	-4.24
380.587	-3.14
381.05	-4.74
381.512	-5.74
381.975	5.26
382.437	-2.34
382.9	-4.44
383.362	-2.24
383.825	-5.44
384.287	-7.04
384.75	-8.64
385.212	1.56
385.674	5.26
386.136	-0.54
386.599	-2.34
387.061	2.06
387.523	-4.04
387.985	-2.04
388.447	2.76
388.91	-1.34
389.372	3.86
389.834	2.66
390.296	-1.94
390.758	0.36
391.22	-0.44
391.682	3.26
392.144	4.26
392.606	3.16
393.068	3.26
393.529	2.16
393.991	-3.14
394.453	-0.74
394.915	-1.54
395.377	-2.74
395.838	-1.64
396.3	1.76
396.762	1.46
397.224	5.06
397.685	-4.44
398.147	-2.34
398.608	-5.34
399.07	-5.14
399.531	-3.34
399.993	-2.24
400.454	6.06
400.916	-1.64
401.377	-4.84
401.839	-2.34
402.3	-9.64
402.762	3.26
403.223	3.56
403.684	3.56
404.145	-0.34
404.607	2.46
405.068	0.86
405.529	-5.64
405.99	-7.94
406.451	-1.34
406.913	-1.74
407.374	-3.34
407.835	-4.04
408.296	-2.74
408.757	0.96
409.218	-3.74
409.679	-2.54
410.14	5.26
410.601	2.96
411.062	1.96
411.522	6.66
411.983	-5.74
412.444	-10.64
412.905	2.86
413.366	-1.34
413.826	2.16
414.287	3.56
414.748	8.06
415.208	4.16
415.669	7.06
416.13	5.46
416.59	5.16
417.051	3.26
417.511	-2.04
417.972	0.86
418.432	-0.84
418.893	15.16
419.353	5.06
419.814	10.56
420.274	3.16
420.734	2.96
421.195	1.46
421.655	-3.94
422.115	-3.74
422.576	1.36
423.036	-3.54
423.496	3.96
423.956	1.36
424.416	1.66
424.876	5.56
425.336	1.66
425.797	5.56
426.257	0.46
426.717	2.36
427.177	8.96
427.637	0.76
428.097	0.66
428.556	-2.84
429.016	3.96
429.476	-2.04
429.936	-4.74
430.396	-1.04
430.856	-1.84
431.315	3.36
431.775	-0.44
432.235	12.16
432.694	4.56
433.154	10.76
433.614	3.66
434.073	3.06
434.533	5.86
434.993	-0.64
435.452	3.26
435.912	6.56
436.371	2.96
436.83	1.16
437.29	4.76
437.749	-0.34
438.209	-3.54
438.668	-3.94
439.127	6.66
439.587	1.86
440.046	-3.14
440.505	4.36
440.964	1.56
441.424	1.86
441.883	1.06
442.342	7.26
442.801	-0.84
443.26	0.16
443.719	-0.04
444.178	-0.84
444.637	-6.04
445.096	4.16
445.555	3.66
446.014	7.36
446.473	6.26
446.932	4.46
447.391	-2.74
447.849	6.66
448.308	2.26
448.767	-3.54
449.226	8.26
449.685	7.56
450.143	4.66
450.602	0.46
451.061	-6.94
451.519	-0.64
451.978	-0.64
452.436	4.06
452.895	1.36
453.353	-1.84
453.812	4.96
454.27	0.26
454.729	1.66
455.187	-3.84
455.646	5.36
456.104	1.26
456.562	3.36
457.021	2.16
457.479	10.66
457.937	8.66
458.395	0.86
458.854	-4.04
459.312	0.06
459.77	-8.84
460.228	-2.54
460.686	-0.34
461.144	12.26
461.602	3.66
462.06	1.46
462.518	2.36
462.976	-2.64
463.434	-2.24
463.892	-0.24
464.35	2.16
464.808	3.76
465.266	-3.34
465.724	7.86
466.181	4.96
466.639	5.66
467.097	6.66
467.555	1.06
468.012	1.86
468.47	6.36
468.928	3.16
469.385	12.86
469.843	9.56
470.3	6.66
470.758	0.66
471.215	2.66
471.673	-2.84
472.13	3.66
472.588	11.46
473.045	5.26
473.503	2.36
473.96	-4.04
474.417	3.26
474.875	-0.74
475.332	12.26
475.789	3.16
476.246	5.46
476.704	1.46
477.161	4.16
477.618	-0.64
478.075	1.16
478.532	8.76
478.989	1.76
479.446	3.66
479.903	13.16
480.36	13.36
480.817	3.46
481.274	8.86
481.731	9.06
482.188	-1.14
482.645	13.66
483.102	6.36
483.558	7.36
484.015	8.96
484.472	12.86
484.929	11.96
485.385	9.76
485.842	11.26
486.299	9.36
486.755	20.26
487.212	7.46
487.668	3.16
488.125	11.76
488.582	15.06
489.038	12.06
489.494	3.36
489.951	7.66
490.407	5.06
490.864	3.96
491.32	14.26
491.776	7.06
492.233	9.76
492.689	4.76
493.145	6.46
493.602	6.96
494.058	14.16
494.514	11.16
494.97	10.66
495.426	2.46
495.882	5.36
496.338	9.16
496.794	12.96
497.251	-2.24
497.707	13.86
498.163	6.86
498.618	7.36
499.074	12.96
499.53	9.96
499.986	6.16
500.442	5.56
500.898	3.76
501.354	0.56
501.809	8.86
502.265	9.86
502.721	4.86
503.177	11.86
503.632	3.36
504.088	13.16
504.543	11.96
504.999	6.26
505.455	8.06
505.91	5.96
506.366	12.76
506.821	2.46
507.277	0.56
507.732	4.86
508.187	-1.84
508.643	9.66
509.098	4.06
509.553	15.36
510.009	14.66
510.464	7.16
510.919	16.16
511.375	11.06
511.83	12.26
512.285	4.36
512.74	14.86
513.195	12.66
513.65	18.26
514.105	17.66
514.56	14.46
515.015	18.36
515.47	20.96
515.925	7.86
516.38	13.36
516.835	19.56
517.29	16.96
517.745	16.26
518.2	13.66
518.655	9.96
519.109	7.06
519.564	12.16
520.019	6.36
520.474	2.86
520.928	9.06
521.383	18.96
521.838	8.76
522.292	11.66
522.747	24.06
523.201	16.06
523.656	12.36
524.11	17.36
524.565	12.76
525.019	-3.94
525.474	12.06
525.928	3.56
526.382	-0.04
526.837	6.96
527.291	8.86
527.745	7.36
528.2	9.26
528.654	9.66
529.108	5.16
529.562	8.46
530.016	0.96
530.47	6.36
530.925	8.46
531.379	7.86
531.833	3.06
532.287	7.66
532.741	6.06
533.195	1.16
533.649	12.86
534.103	13.36
534.556	2.86
535.01	-2.04
535.464	-1.24
535.918	11.46
536.372	9.76
536.826	17.96
537.279	6.56
537.733	8.56
538.187	-0.64
538.64	-0.14
539.094	8.16
539.548	7.56
540.001	5.96
540.455	8.86
540.908	8.96
541.362	7.76
541.815	10.86
542.269	9.66
542.722	6.56
543.175	8.66
543.629	2.96
544.082	10.56
544.536	1.56
544.989	7.46
545.442	18.46
545.895	8.06
546.349	10.96
546.802	8.36
547.255	6.46
547.708	9.46
548.161	7.96
548.614	16.46
549.067	15.16
549.52	4.96
549.973	6.36
550.426	11.16
550.879	-0.54
551.332	5.96
551.785	7.06
552.238	5.96
552.691	8.56
553.144	10.36
553.596	5.06
554.049	6.46
554.502	17.26
554.955	20.26
555.407	10.16
555.86	18.46
556.313	18.46
556.765	11.66
557.218	18.66
557.67	16.46
558.123	8.06
558.576	10.16
559.028	9.76
559.48	15.26
559.933	15.76
560.385	8.66
560.838	8.16
561.29	5.76
561.742	8.86
562.195	-0.74
562.647	6.96
563.099	13.56
563.551	8.76
564.004	15.06
564.456	8.86
564.908	11.16
565.36	3.56
565.812	11.86
566.264	5.56
566.716	16.26
567.168	8.56
567.62	12.16
568.072	5.46
568.524	7.06
568.976	9.56
569.428	4.96
569.88	8.86
570.332	5.46
570.784	7.16
571.235	1.66
571.687	4.36
572.139	9.76
572.59	9.16
573.042	1.86
573.494	3.76
573.945	15.66
574.397	1.66
574.849	10.56
575.3	7.36
575.752	8.96
576.203	9.76
576.655	9.86
577.106	2.16
577.557	7.96
578.009	10.66
578.46	-0.24
578.912	6.76
579.363	2.16
579.814	4.96
580.265	1.26
580.717	2.66
581.168	0.26
581.619	2.36
582.07	6.26
582.521	10.96
582.972	4.16
583.423	5.76
583.875	0.66
584.326	8.16
584.777	3.16
585.227	8.76
585.678	2.56
586.129	0.26
586.58	13.56
587.031	13.26
587.482	12.26
587.933	10.56
588.384	6.36
588.834	9.26
589.285	10.96
589.736	13.06
590.186	4.96
590.637	11.46
591.088	9.46
591.538	11.86
591.989	13.06
592.439	11.96
592.89	6.46
593.34	2.66
593.791	2.36
594.241	-6.44
594.692	1.36
595.142	3.16
595.593	3.16
596.043	8.36
596.493	7.76
596.943	7.36
597.394	7.96
597.844	2.96
598.294	2.46
598.744	13.96
599.195	8.76
599.645	9.06
600.095	11.96
600.545	16.06
600.995	12.26
601.445	22.36
601.895	20.36
602.345	28.36
602.795	15.56
603.245	11.76
603.695	13.76
604.145	8.76
604.594	5.76
605.044	6.16
605.494	0.76
605.944	-6.54
606.393	4.86
606.843	5.16
607.293	8.46
607.743	5.86
608.192	4.36
608.642	11.36
609.091	11.26
609.541	14.36
609.99	4.66
610.44	13.96
610.889	1.46
611.339	6.16
611.788	1.46
612.238	8.16
612.687	24.06
613.136	9.16
613.586	14.46
614.035	-1.74
614.484	3.96
614.933	4.16
615.383	9.96
615.832	10.86
616.281	7.26
616.73	9.66
617.179	7.96
617.628	3.26
618.077	8.16
618.526	3.96
618.975	6.86
619.424	9.76
619.873	6.06
620.322	2.66
620.771	-5.74
621.22	7.86
621.669	6.86
622.118	8.46
622.567	5.56
623.015	-1.64
623.464	6.56
623.913	4.76
624.361	-4.94
624.81	-3.74
625.259	3.16
625.707	2.56
626.156	3.16
626.604	5.66
627.053	1.36
627.501	3.06
627.95	1.56
628.398	0.86
628.847	-1.14
629.295	-1.44
629.744	3.26
630.192	4.96
630.64	6.36
631.089	-3.84
631.537	9.96
631.985	1.56
632.433	1.86
632.881	4.06
633.33	5.26
633.778	2.66
634.226	-1.44
634.674	3.16
635.122	0.96
635.57	-1.64
636.018	-2.84
636.466	11.56
636.914	0.66
637.362	9.86
637.81	11.06
638.258	1.76
638.705	2.06
639.153	13.86
639.601	-3.74
640.049	1.06
640.497	8.36
640.944	14.16
641.392	0.26
641.84	4.36
642.287	4.36
642.735	-7.04
643.182	8.56
643.63	-1.44
644.078	-0.54
644.525	8.16
644.973	4.66
645.42	4.16
645.867	-1.44
646.315	7.06
646.762	2.56
647.21	4.56
647.657	-0.44
648.104	3.16
648.551	4.86
648.999	5.06
649.446	4.46
649.893	-0.64
650.34	0.26
650.787	1.46
651.234	5.46
651.682	-1.64
652.129	-0.94
652.576	-2.34
653.023	10.26
653.47	8.86
653.917	3.36
654.363	11.46
654.81	4.96
655.257	9.06
655.704	8.76
656.151	-6.44
656.598	1.46
657.044	7.16
657.491	5.86
657.938	2.26
658.385	5.26
658.831	9.06
659.278	7.86
659.724	2.96
660.171	7.86
660.618	0.46
661.064	5.76
661.511	-2.54
661.957	5.76
662.404	0.46
662.85	10.26
663.296	7.76
663.743	7.76
664.189	-3.04
664.635	3.36
665.082	5.86
665.528	4.96
665.974	4.16
666.42	0.96
666.867	-1.54
667.313	-0.94
667.759	1.66
668.205	4.96
668.651	5.86
669.097	3.56
669.543	-0.54
669.989	1.46
670.435	8.36
670.881	2.96
671.327	-0.44
671.773	6.06
672.219	7.26
672.665	10.76
673.11	-0.44
673.556	10.26
674.002	13.96
674.448	5.96
674.893	7.26
675.339	3.46
675.785	2.66
676.23	4.16
676.676	-0.34
677.122	4.56
677.567	-2.04
678.013	7.46
678.458	0.46
678.904	2.46
679.349	-5.04
679.794	3.86
680.24	3.96
680.685	-2.44
681.131	-2.34
681.576	1.96
682.021	5.06
682.466	6.56
682.912	-1.44
683.357	-6.14
683.802	10.56
684.247	1.06
684.692	4.66
685.137	-2.14
685.583	11.86
686.028	6.66
686.473	5.46
686.918	2.06
687.363	4.46
687.807	4.86
688.252	1.06
688.697	2.46
689.142	3.86
689.587	-0.54
690.032	-8.84
690.477	8.56
690.921	1.66
691.366	3.36
691.811	-1.14
692.255	10.66
692.7	5.26
693.145	3.36
693.589	10.96
694.034	27.26
694.478	46.46
694.923	56.76
695.367	77.06
695.812	28.46
696.256	3.76
696.701	3.56
697.145	5.86
697.59	-1.44
698.034	-2.24
698.478	4.96
698.922	2.16
699.367	3.46
699.811	6.46
700.255	3.56
700.699	9.86
701.143	1.46
701.588	2.16
702.032	9.46
702.476	2.16
702.92	2.96
703.364	1.96
703.808	11.66
704.252	27.56
704.696	42.16
705.14	54.96
705.584	73.96
706.027	32.16
706.471	2.46
706.915	4.06
707.359	2.86
707.803	-6.84
708.246	-0.04
708.69	0.86
709.134	6.76
709.577	5.56
710.021	9.36
710.465	4.46
710.908	-1.84
711.352	-1.64
711.795	1.36
712.239	5.76
712.682	-0.84
713.126	8.26
713.569	9.86
714.012	8.66
714.456	9.36
714.899	-0.14
715.342	-7.44
715.786	-3.54
716.229	-0.14
716.672	4.26
717.115	-3.44
717.558	-1.74
718.002	2.66
718.445	2.76
718.888	9.16
719.331	2.16
719.774	2.36
720.217	10.36
720.66	-2.54
721.103	1.66
721.546	1.76
721.989	3.06
722.432	-12.04
722.874	-4.64
723.317	-9.24
723.76	-2.74
724.203	3.56
724.645	-0.94
725.088	7.86
725.531	6.86
725.974	13.76
726.416	4.66
726.859	2.66
727.301	-4.34
727.744	1.66
728.187	1.16
728.629	3.16
729.071	-0.14
729.514	0.76
729.956	-5.14
730.399	1.76
730.841	-0.44
731.283	-3.14
731.726	-0.64
732.168	-4.74
732.61	0.06
733.053	0.96
733.495	-0.84
733.937	-2.44
734.379	7.26
734.821	-2.14
735.263	4.46
735.705	19.26
736.148	41.06
736.59	73.96
737.032	96.16
737.474	75.16
737.916	9.76
738.357	-0.64
738.799	2.86
739.241	-2.04
739.683	-1.44
740.125	4.76
740.567	-2.34
741.008	5.86
741.45	2.96
741.892	4.86
742.334	5.96
742.775	-0.44
743.217	0.16
743.658	-5.44
744.1	4.56
744.542	-5.04
744.983	7.26
745.425	-6.24
745.866	-4.14
746.307	2.86
746.749	5.46
747.19	5.86
747.632	10.96
748.073	17.06
748.514	65.56
748.956	88.26
749.397	112.96
749.838	94.76
750.279	103.96
750.72	37.06
751.162	13.16
751.603	1.86
752.044	3.16
752.485	-3.54
752.926	-0.04
753.367	4.66
753.808	-5.54
754.249	-1.94
754.69	-9.94
755.131	-5.64
755.572	-3.44
756.013	-3.64
756.453	4.86
756.894	1.06
757.335	-4.24
757.776	2.76
758.216	4.26
758.657	4.26
759.098	-8.04
759.538	-6.84
759.979	-7.74
760.42	1.96
760.86	7.26
761.301	44.86
761.741	123.76
762.182	197.06
762.622	132.26
763.063	31.96
763.503	6.66
763.943	1.86
764.384	6.86
764.824	-0.34
765.264	-3.94
765.705	-2.44
766.145	-12.64
766.585	-9.84
767.025	-4.84
767.465	-13.44
767.906	0.06
768.346	8.86
768.786	-1.04
769.226	-7.34
769.666	12.36
770.106	9.66
770.546	44.66
770.986	91.06
771.426	76.86
771.866	14.16
772.306	0.86
772.745	-3.34
773.185	-4.64
773.625	3.66
774.065	-9.54
774.505	-1.94
774.944	-0.94
775.384	1.66
775.824	2.06
776.263	-1.94
776.703	-9.84
777.142	-2.44
777.582	-0.44
778.021	-9.44
778.461	-1.84
778.9	0.66
779.34	7.86
779.779	-3.94
780.219	-13.04
780.658	-10.04
781.097	0.66
781.537	-1.54
781.976	-4.14
782.415	-1.14
782.855	-3.94
783.294	-11.34
783.733	-0.74
784.172	3.46
784.611	-3.64
785.05	-0.74
785.489	-3.84
785.928	4.96
786.367	6.86
786.806	-1.74
787.245	-6.44
787.684	-8.14
788.123	-0.44
788.562	0.36
789.001	-3.64
789.44	4.26
789.879	0.16
790.317	-1.94
790.756	4.56
791.195	-3.54
791.634	-2.04
792.072	8.66
792.511	6.16
792.95	28.96
793.388	68.76
793.827	58.56
794.265	13.46
794.704	5.16
795.142	7.86
795.581	1.66
796.019	2.36
796.458	-0.04
796.896	-4.74
797.334	-8.44
797.773	-4.84
798.211	8.86
798.649	9.56
799.087	34.26
799.526	47.26
799.964	71.66
800.402	70.36
800.84	13.26
801.278	-1.84
801.716	-5.24
802.154	-0.74
802.592	6.96
803.03	1.96
803.468	-6.54
803.906	-3.64
804.344	3.36
804.782	-2.44
805.22	-5.84
805.658	-4.34
806.096	2.86
806.533	0.36
806.971	-2.94
807.409	-3.44
807.847	3.46
808.284	14.36
808.722	46.56
809.16	101.86
809.597	93.06
810.035	155.16
810.472	180.96
810.91	52.06
811.347	29.16
811.785	13.36
812.222	-2.54
812.66	5.36
813.097	-0.94
813.535	-1.14
813.972	-3.14
814.409	1.66
814.846	-3.74
815.284	2.46
815.721	-4.84
816.158	0.36
816.595	-1.94
817.032	-5.74
817.47	3.56
817.907	3.26
818.344	-2.34
818.781	-4.04
819.218	-8.24
819.655	-4.44
820.092	-6.24
820.529	-13.04
820.966	-6.94
821.403	-0.44
821.839	-11.54
822.276	-0.14
822.713	0.46
823.15	3.56
823.587	-1.54
824.023	-1.74
824.46	2.36
824.897	28.26
825.333	48.86
825.77	18.16
826.206	0.96
826.643	0.16
827.08	4.26
827.516	-2.34
827.953	-7.94
828.389	-0.84
828.825	-5.84
829.262	-4.14
829.698	-4.64
830.135	-4.44
830.571	-0.84
831.007	-5.34
831.443	0.66
831.88	-4.44
832.316	-5.54
832.752	-4.54
833.188	-5.04
833.624	-6.04
834.06	-2.54
834.497	-3.44
834.933	-3.74
835.369	7.06
835.805	-4.34
836.241	3.06
836.677	-4.34
837.112	-1.94
837.548	-11.44
837.984	-7.64
838.42	-4.04
838.856	8.76
839.292	45.46
839.727	82.76
840.163	24.86
840.599	25.46
841.034	66.16
841.47	72.56
841.906	20.06
842.341	1.06
842.777	1.66
843.212	-9.04
843.648	7.56
844.083	0.46
844.519	-5.54
844.954	-1.64
845.39	-11.14
845.825	-6.94
846.261	-7.54
846.696	0.56
847.131	-6.14
847.566	0.76
848.002	-7.74
848.437	-1.94
848.872	1.96
849.307	1.26
849.742	-0.74
850.177	4.26
850.613	23.36
851.048	28.16
851.483	7.86
851.918	-0.24
852.353	1.06
852.788	-8.34
853.223	-2.84
853.657	2.96
854.092	-1.44
854.527	-2.54
854.962	-3.34
855.397	2.76
855.832	2.16
856.266	-5.84
856.701	0.56
857.136	1.26
857.57	-1.54
858.005	-11.24
858.44	1.76
858.874	-8.84
859.309	-2.64
859.743	-12.14
860.178	-4.84
860.612	-10.54
861.047	-0.54
861.481	-10.14
861.915	-2.94
862.35	-1.34
862.784	-11.44
863.218	-2.34
863.653	-6.94
864.087	4.56
864.521	7.56
864.955	-0.54
865.39	0.46
865.824	3.76
866.258	2.96
866.692	2.56
867.126	-2.24
867.56	-1.94
867.994	-7.94
868.428	-7.44
868.862	-6.04
869.296	-0.94
869.73	6.36
870.164	-7.94
870.598	-5.64
871.031	-6.84
871.465	1.66
871.899	3.66
872.333	-9.64
872.766	-4.14
873.2	-4.64
873.634	-9.74
874.067	-1.74
874.501	-3.44
874.935	2.46
875.368	-0.54
875.802	-4.84
876.235	-7.64
876.669	-4.84
877.102	-4.94
877.535	-1.24
877.969	-3.44
878.402	-0.44
878.836	-8.84
879.269	-9.54
879.702	-0.54
880.135	-8.34
880.569	-3.04
881.002	-0.14
881.435	-3.84
881.868	-8.54
882.301	-0.84
882.734	-12.04
883.167	-1.54
883.601	0.36
884.034	2.96
884.467	-1.54
884.899	-0.34
885.332	-2.24
885.765	-4.64
886.198	-1.64
886.631	-1.74
887.064	-1.24
887.497	-3.24
887.929	2.46
888.362	-5.94
888.795	-6.64
889.228	-7.24
889.66	4.66
890.093	-6.94
890.526	-0.44
890.958	1.76
891.391	-2.74
891.823	2.86
892.256	-1.94
892.688	-5.64
893.121	-7.14
893.553	-6.04
893.985	4.06
894.418	4.46
894.85	-9.84
895.282	-1.34
895.715	-4.44
896.147	-3.34
896.579	2.06
897.011	-10.54
897.444	2.26
897.876	-7.24
898.308	1.86
898.74	-3.14
899.172	-7.84
899.604	2.86
900.036	-0.54
900.468	-5.74
900.9	-3.74
901.332	2.66
901.764	-13.44
902.196	-3.04
902.628	-8.14
903.06	-13.24
903.491	-4.74
903.923	-5.34
904.355	-8.84
904.787	-4.44
905.218	-2.44
905.65	-3.34
906.082	-3.34
906.513	-6.14
906.945	-5.24
907.376	-5.64
907.808	0.16
908.239	-3.14
908.671	-6.84
909.102	-6.74
909.534	-9.64
909.965	6.06
910.397	-1.94
910.828	11.36
911.259	15.76
911.691	3.46
912.122	-1.94
912.553	-2.04
912.984	-3.44
913.415	-2.94
913.847	1.06
914.278	-10.24
914.709	-8.44
915.14	1.66
915.571	-1.24
916.002	-5.74
916.433	1.06
916.864	-4.34
917.295	-6.04
917.726	2.06
918.157	-10.14
918.587	2.96
919.018	-0.04
919.449	-3.14
919.88	-7.44
920.311	-0.84
920.741	-7.04
921.172	1.76
921.603	4.06
922.033	-6.44
922.464	-0.64
922.895	-1.04
923.325	-4.14
923.756	-8.54
924.186	-2.24
924.617	-3.54
925.047	-10.24
925.478	-12.34
925.908	-10.34
926.338	-5.14
926.769	-4.34
927.199	-2.24
927.629	-10.64
928.06	-9.04
928.49	-7.44
928.92	-2.04
929.35	-1.84
929.78	-3.34
930.21	0.46
930.641	-5.04
931.071	0.86
931.501	-5.34
931.931	-4.44
932.361	-1.04
932.791	-8.14
933.221	-5.94
933.651	-10.34
934.08	-11.14
934.51	2.36
934.94	-5.94
935.37	-4.84
935.8	-0.44
936.229	-2.94
936.659	-5.04
937.089	-1.14
937.519	-2.94
937.948	1.06
938.378	-3.14
938.807	-5.84
939.237	-8.34
939.666	-2.44
940.096	-8.74
940.525	-2.34
940.955	-4.44
941.384	1.26
941.814	-13.44
942.243	-7.94
942.672	-1.14
943.102	-6.24
943.531	-10.24
943.96	-3.84
944.39	3.66
944.819	-3.54
945.248	-1.44
945.677	2.26
946.106	-1.24
946.535	-2.54
946.964	-1.84
947.393	-2.14
947.822	-3.34
948.251	-8.54
948.68	1.56
949.109	3.16
949.538	-1.54
949.967	-2.64
950.396	-2.54
950.825	-2.94
951.254	-3.84
951.682	-14.84
952.111	0.56
952.54	6.76
952.969	-6.14
953.397	-9.64
953.826	-4.54
954.254	-8.24
954.683	-4.64
955.112	-4.24
955.54	0.76
955.969	-2.34
956.397	-1.54
956.826	-7.84
957.254	2.66
957.682	-2.34
958.111	4.16
958.539	3.96
958.967	4.46
959.396	-11.04
959.824	-4.14
960.252	-2.44
960.68	-7.24
961.109	-6.74
961.537	-7.14
961.965	-11.04
962.393	-4.44
962.821	-6.64
963.249	-2.74
963.677	2.26
964.105	-10.84
964.533	-3.34
964.961	-3.94
965.389	-1.94
965.817	-2.24
966.245	-5.24
966.672	-4.54
967.1	-3.94
967.528	-9.24
967.956	-10.74
968.383	-4.84
968.811	-5.24
969.239	-10.54
969.666	-9.84
970.094	-3.84
970.522	-2.04
970.949	-6.94
971.377	-9.54
971.804	-5.04
972.232	-8.54
972.659	-7.34
973.087	-6.54
973.514	-5.74
973.941	-4.64
974.369	0.56
974.796	1.36
975.223	-4.94
975.651	-9.14
976.078	0.06
976.505	-1.54
976.932	-5.74
977.359	-8.54
977.786	2.56
978.214	-8.34
978.641	-9.44
979.068	-5.94
979.495	-8.44
979.922	-6.14
980.349	-0.24
980.776	-6.44
981.202	-3.54
981.629	3.16
982.056	0.16
982.483	-2.34
982.91	1.66
983.337	-5.24
983.763	1.46
984.19	-7.24
984.617	-3.14
985.043	-6.24
985.47	-1.04
985.897	-3.14
986.323	-12.74
986.75	0.56
987.176	-5.84
987.603	-1.84
988.029	-1.44
988.456	-8.74
988.882	-0.24
989.308	-10.54
989.735	-6.44
990.161	-5.54
990.587	-4.14
991.014	-2.14
991.44	1.66
991.866	-1.44
992.292	-9.24
992.719	-3.74
993.145	1.46
993.571	-11.14
993.997	-6.74
994.423	-5.54
994.849	-6.04
995.275	-0.64
995.701	-1.94
996.127	-0.84
996.553	-0.84
996.979	-4.84
997.405	-3.44
997.83	-3.54
998.256	-10.14
998.682	-9.64
999.108	-8.74
999.534	-5.94
999.959	-0.94
1000.385	-10.94
1000.811	0.46
1001.236	-9.34
1001.662	-11.44
1002.087	-6.84
1002.513	-2.24
1002.938	1.46
1003.364	-4.34
1003.789	-2.04
1004.215	4.06
1004.64	-2.24
1005.066	0.66
1005.491	-0.74
1005.916	-6.94
1006.342	-5.94
1006.767	-9.64
1007.192	3.26
1007.617	-2.74
1008.042	-5.24
1008.468	-6.64
1008.893	-7.64
1009.318	-2.44
1009.743	-10.74
1010.168	-1.24
1010.593	-4.14
1011.018	-7.54
1011.443	-6.04
1011.868	-3.64
1012.293	-5.54
1012.718	-7.84
1013.143	3.36
1013.567	-3.64
1013.992	-6.44
1014.417	-16.34
1014.842	1.36
1015.267	-5.14
1015.691	-3.34
1016.116	3.06
1016.541	-3.74
1016.965	2.96
1017.39	3.06
1017.814	-0.04
1018.239	-2.44
1018.663	-7.44
1019.088	-12.04
1019.512	-4.84
1019.937	-10.44
1020.361	-7.64
1020.785	-10.54
1021.21	-2.74
1021.634	-4.64
1022.058	-1.04
1022.483	3.56
1022.907	-3.44
1023.331	-4.64
1023.755	-3.54
1024.179	-3.84
1024.604	-4.54
1025.028	-6.04
1025.452	-4.14
1025.876	1.56
1026.3	-0.74
1026.724	-10.24
1027.148	-5.04
1027.572	-11.14
1027.996	-2.64
1028.42	-0.54
1028.843	-2.04
1029.267	-3.94
1029.691	-2.44
1030.115	-6.94
1030.539	-9.14
1030.962	-3.34
1031.386	-9.14
1031.81	-2.44
1032.233	-1.24
1032.657	-2.04
1033.08	1.66
1033.504	-4.24
1033.927	-10.74
1034.351	-2.24
1034.774	-2.34
1035.198	-2.24
1035.621	-6.84
1036.045	-6.34
1036.468	-4.14
1036.891	-8.54
1037.315	-7.94
1037.738	-6.94
1038.161	3.46
1038.584	-5.04
1039.008	-3.84
1039.431	-1.04
1039.854	-2.74
1040.277	-9.44
1040.7	-6.74
1041.123	0.96
1041.546	-6.44
1041.969	0.96
1042.392	-3.04
1042.815	-4.34
1043.238	3.56
1043.661	4.46
1044.084	-10.24
1044.507	-6.54
1044.93	-3.84
1045.352	-4.14
1045.775	-3.84
1046.198	-5.54
1046.621	2.66
1047.043	0.46
1047.466	4.56
1047.889	-3.44
1048.311	-3.14
1048.734	-4.84
1049.156	-1.24
1049.579	0.36
1050.001	-2.34
1050.424	1.96
1050.846	-5.54
1051.269	-3.44
1051.691	-1.44
1052.113	-5.04
1052.536	-1.84
1052.958	1.76
1053.38	-2.54
1053.802	-14.24
1054.225	3.66
1054.647	-14.24
1055.069	-4.64
1055.491	-0.24
1055.913	-6.14
1056.335	-0.44
1056.757	-8.14
1057.179	-2.84
1057.601	-5.44
1058.023	-2.14
1058.445	-4.24
1058.867	-4.74
1059.289	-9.24
1059.711	-5.34
1060.133	-2.04
1060.555	-2.04
1060.976	-4.74
1061.398	-3.84
1061.82	-10.04
1062.241	-8.14
1062.663	-1.14
1063.085	1.06
1063.506	1.56
1063.928	0.06
1064.35	-2.74
1064.771	-12.04
1065.193	-2.44
1065.614	-6.14
1066.035	2.16
1066.457	-2.84
1066.878	-1.94
1067.3	-9.94
1067.721	-1.64
1068.142	-5.64
1068.564	-6.84
1068.985	-7.44
1069.406	-9.24
1069.827	-2.94
1070.248	3.26
1070.67	-9.24
1071.091	-1.24
1071.512	-1.14
1071.933	-6.54
1072.354	-7.94
1072.775	-5.04
1073.196	-7.64
1073.617	-3.24
1074.038	-3.04
1074.459	-5.04
1074.88	-8.54
1075.3	-0.54
1075.721	-0.94
1076.142	1.46
1076.563	-0.34
1076.983	-14.14
1077.404	-8.54
1077.825	-4.54
1078.246	-1.54
1078.666	-7.04
1079.087	-3.24
1079.507	-3.54
1079.928	-2.34
1080.348	-0.04
1080.769	-7.64
1081.189	-1.04
1081.61	-2.14
1082.03	-5.54
1082.451	-5.64
1082.871	1.66
1083.291	-5.94
1083.711	-7.74
1084.132	-5.84
1084.552	-7.64
1084.972	-4.64
1085.392	-9.64
1085.813	-8.44
1086.233	-4.74
1086.653	0.96
1087.073	2.06
1087.493	-4.34
1087.913	-6.04
1088.333	-5.94
1088.753	-0.14
1089.173	-0.24
1089.593	-5.24
1090.013	0.06
1090.433	2.66
1090.852	-0.54
1091.272	-1.04
1091.692	2.46
1092.112	-4.94
1092.531	-3.34
1092.951	-11.04
1093.371	-5.14
1093.79	-0.74
1094.21	0.36
1094.63	-3.14
1095.049	-2.24
1095.469	-5.84
1095.888	2.06
1096.308	2.46
1096.727	5.36
1097.146	-10.04
1097.566	0.36
1097.985	-7.64
1098.405	1.26
1098.824	-5.74
1099.243	-5.94
1099.662	-7.94
1100.082	-4.34
1100.501	-1.44
1100.92	-7.14
1101.339	-5.04
1101.758	-3.84
