Data from 20171114-ORNL-Ar_H_NY_Subt18_08-05-59-988.txt Node
Date: Tue Nov 14 08:05:59 EST 2017
User: Ender
Spectrometer: HR+D1039
Trigger mode: 0
Integration Time (sec): 2.730000E-2
Scans to average: 10
Electric dark correction enabled: true
Nonlinearity correction enabled: false
Boxcar width: 0
XAxis mode: Wavelengths
Number of Pixels in Spectrum: 2048
>>>>>Begin Spectral Data<<<<<
187.836	-5.06
188.309	-5.06
188.782	-5.06
189.255	-2.16
189.728	-0.16
190.201	6.24
190.674	3.14
191.147	2.94
191.619	-11.36
192.092	0.74
192.565	4.54
193.038	5.94
193.511	2.94
193.984	3.04
194.456	-2.26
194.929	-0.36
195.402	-7.26
195.874	-0.86
196.347	-6.26
196.82	-7.26
197.292	3.94
197.765	1.64
198.237	-3.46
198.71	-0.56
199.182	-5.36
199.655	-4.56
200.127	-3.66
200.6	-3.76
201.072	-5.36
201.544	-7.06
202.017	-5.56
202.489	1.64
202.961	-6.26
203.433	3.54
203.906	-2.36
204.378	-6.06
204.85	-2.36
205.322	-8.46
205.794	-3.56
206.266	-2.86
206.739	-4.66
207.211	4.44
207.683	-10.16
208.155	1.04
208.627	-7.96
209.099	-3.46
209.57	-9.86
210.042	-5.56
210.514	-2.46
210.986	-4.56
211.458	-18.06
211.93	-1.96
212.402	2.34
212.873	-6.36
213.345	-10.46
213.817	-8.96
214.288	-5.16
214.76	-9.36
215.232	0.24
215.703	-1.36
216.175	-0.26
216.646	-6.96
217.118	-8.76
217.589	-7.46
218.061	-4.86
218.532	-3.26
219.004	-4.76
219.475	-5.46
219.946	-3.06
220.418	-1.46
220.889	1.44
221.36	-1.76
221.832	-9.56
222.303	-5.76
222.774	-0.66
223.245	-9.16
223.717	-7.76
224.188	-5.06
224.659	-6.66
225.13	-1.56
225.601	-4.36
226.072	-5.06
226.543	-1.76
227.014	-1.06
227.485	-0.56
227.956	-5.66
228.427	-4.26
228.898	5.84
229.369	0.54
229.839	-1.66
230.31	-9.96
230.781	1.44
231.252	-4.16
231.722	-8.06
232.193	-0.16
232.664	2.64
233.135	-1.36
233.605	-1.96
234.076	-3.56
234.546	-0.46
235.017	8.34
235.487	2.94
235.958	-3.46
236.428	-8.16
236.899	4.14
237.369	1.54
237.84	-1.06
238.31	9.14
238.78	5.54
239.251	-0.66
239.721	0.14
240.191	-2.96
240.662	-2.66
241.132	0.14
241.602	-10.06
242.072	6.64
242.542	4.14
243.013	-5.96
243.483	0.74
243.953	0.64
244.423	-0.56
244.893	-2.66
245.363	2.04
245.833	-1.06
246.303	-2.76
246.773	8.14
247.243	0.44
247.712	3.34
248.182	2.34
248.652	7.04
249.122	-3.56
249.592	10.14
250.061	24.24
250.531	36.64
251.001	17.54
251.471	16.54
251.94	17.34
252.41	7.94
252.879	0.64
253.349	11.04
253.818	12.64
254.288	2.94
254.757	5.54
255.227	4.24
255.696	5.64
256.166	9.04
256.635	6.34
257.105	4.44
257.574	11.94
258.043	8.54
258.513	15.74
258.982	16.84
259.451	11.94
259.92	16.64
260.389	12.14
260.859	14.94
261.328	11.84
261.797	15.94
262.266	4.24
262.735	6.04
263.204	5.84
263.673	3.44
264.142	5.64
264.611	-2.16
265.08	0.44
265.549	1.34
266.018	9.54
266.487	-3.56
266.955	-6.46
267.424	0.64
267.893	11.14
268.362	6.24
268.83	8.64
269.299	11.14
269.768	10.14
270.236	8.84
270.705	1.94
271.174	3.04
271.642	13.54
272.111	14.34
272.579	16.24
273.048	20.54
273.516	29.84
273.985	28.44
274.453	26.24
274.922	21.34
275.39	10.24
275.858	5.14
276.327	10.84
276.795	25.14
277.263	13.54
277.731	27.14
278.2	55.04
278.668	61.44
279.136	47.94
279.604	17.24
280.072	16.14
280.54	10.44
281.008	12.74
281.477	19.34
281.945	13.84
282.413	19.04
282.881	14.34
283.348	13.84
283.816	14.24
284.284	12.14
284.752	20.54
285.22	18.44
285.688	11.84
286.156	19.64
286.623	46.14
287.091	50.34
287.559	25.64
288.026	16.84
288.494	16.04
288.962	10.14
289.429	10.84
289.897	17.34
290.364	17.54
290.832	21.44
291.3	13.54
291.767	17.44
292.234	14.84
292.702	14.34
293.169	19.54
293.637	27.24
294.104	21.64
294.571	10.14
295.039	15.44
295.506	10.54
295.973	17.24
296.44	11.34
296.908	15.64
297.375	21.54
297.842	25.74
298.309	21.84
298.776	15.44
299.243	25.54
299.71	10.74
300.177	27.54
300.644	21.24
301.111	17.24
301.578	25.04
302.045	19.14
302.512	18.74
302.979	27.14
303.446	25.84
303.913	21.84
304.379	19.84
304.846	30.94
305.313	28.64
305.78	22.64
306.246	26.94
306.713	34.74
307.18	26.04
307.646	27.34
308.113	30.64
308.579	23.44
309.046	28.14
309.512	28.94
309.979	20.74
310.445	31.54
310.912	29.54
311.378	29.64
311.845	25.74
312.311	35.64
312.777	30.84
313.244	28.94
313.71	38.24
314.176	29.14
314.642	35.94
315.109	30.54
315.575	41.44
316.041	43.34
316.507	34.14
316.973	43.34
317.439	35.34
317.905	37.64
318.371	39.14
318.837	37.34
319.303	32.24
319.769	34.74
320.235	34.34
320.701	39.74
321.167	38.84
321.633	34.44
322.099	38.04
322.564	45.44
323.03	45.54
323.496	40.14
323.962	47.14
324.427	36.54
324.893	38.94
325.359	37.44
325.824	35.84
326.29	36.54
326.755	37.54
327.221	38.64
327.686	35.54
328.152	51.04
328.617	43.54
329.083	44.24
329.548	54.24
330.014	51.74
330.479	42.14
330.944	43.04
331.41	48.44
331.875	44.74
332.34	46.14
332.805	42.14
333.271	47.14
333.736	43.04
334.201	51.74
334.666	52.54
335.131	61.74
335.596	45.84
336.061	48.14
336.526	42.74
336.991	52.84
337.456	54.74
337.921	44.34
338.386	46.84
338.851	48.74
339.316	54.14
339.781	50.84
340.246	53.14
340.711	50.04
341.175	54.74
341.64	50.14
342.105	60.44
342.569	61.84
343.034	59.84
343.499	56.04
343.963	54.24
344.428	67.84
344.893	63.14
345.357	61.44
345.822	65.84
346.286	74.74
346.751	76.24
347.215	72.94
347.679	81.04
348.144	104.34
348.608	84.84
349.073	72.04
349.537	73.04
350.001	84.24
350.465	88.74
350.93	75.94
351.394	82.94
351.858	79.44
352.322	89.84
352.786	86.84
353.25	101.74
353.715	105.64
354.179	103.54
354.643	122.54
355.107	130.84
355.571	109.74
356.035	104.64
356.498	124.84
356.962	128.24
357.426	130.74
357.89	120.44
358.354	89.64
358.818	82.04
359.281	79.34
359.745	81.74
360.209	78.84
360.673	76.04
361.136	82.14
361.6	88.04
362.064	85.44
362.527	86.84
362.991	89.04
363.454	77.54
363.918	76.24
364.381	75.74
364.845	80.24
365.308	84.54
365.772	83.84
366.235	87.14
366.698	87.04
367.162	89.14
367.625	90.54
368.088	90.44
368.552	89.54
369.015	88.44
369.478	96.24
369.941	102.14
370.404	90.74
370.867	105.14
371.331	111.34
371.794	120.44
372.257	114.84
372.72	115.74
373.183	114.24
373.646	104.34
374.109	104.34
374.572	103.24
375.035	112.44
375.497	112.14
375.96	104.84
376.423	109.34
376.886	116.84
377.349	108.54
377.811	104.54
378.274	107.34
378.737	103.44
379.199	108.24
379.662	115.44
380.125	119.34
380.587	119.94
381.05	127.24
381.512	136.24
381.975	139.54
382.437	126.64
382.9	132.14
383.362	130.94
383.825	142.34
384.287	154.14
384.75	144.54
385.212	142.64
385.674	145.24
386.136	134.44
386.599	123.34
387.061	126.74
387.523	133.74
387.985	138.34
388.447	145.34
388.91	143.84
389.372	160.64
389.834	150.04
390.296	151.84
390.758	158.14
391.22	172.44
391.682	214.24
392.144	300.84
392.606	239.04
393.068	166.54
393.529	170.14
393.991	152.24
394.453	142.04
394.915	154.64
395.377	196.84
395.838	217.34
396.3	162.04
396.762	142.64
397.224	133.34
397.685	130.94
398.147	134.14
398.608	133.34
399.07	130.24
399.531	135.44
399.993	140.74
400.454	145.94
400.916	154.94
401.377	143.64
401.839	151.34
402.3	160.34
402.762	164.14
403.223	180.94
403.684	169.94
404.145	159.94
404.607	153.54
405.068	164.84
405.529	175.94
405.99	193.54
406.451	175.64
406.913	177.04
407.374	164.94
407.835	165.14
408.296	169.94
408.757	177.14
409.218	194.24
409.679	179.04
410.14	177.04
410.601	179.94
411.062	184.64
411.522	186.84
411.983	189.84
412.444	182.24
412.905	187.14
413.366	182.84
413.826	198.34
414.287	211.64
414.748	263.84
415.208	250.54
415.669	212.44
416.13	206.34
416.59	205.74
417.051	216.04
417.511	219.84
417.972	240.44
418.432	244.94
418.893	291.84
419.353	258.64
419.814	202.14
420.274	186.54
420.734	184.34
421.195	192.34
421.655	200.44
422.115	191.04
422.576	199.64
423.036	202.04
423.496	207.94
423.956	225.14
424.416	223.04
424.876	265.84
425.336	262.64
425.797	262.94
426.257	264.04
426.717	245.44
427.177	230.14
427.637	226.04
428.097	242.84
428.556	247.04
429.016	271.34
429.476	272.94
429.936	284.64
430.396	283.54
430.856	299.04
431.315	323.44
431.775	360.74
432.235	388.84
432.694	364.34
433.154	368.44
433.614	400.94
434.073	346.74
434.533	291.74
434.993	276.94
435.452	287.94
435.912	300.54
436.371	295.84
436.83	289.14
437.29	273.44
437.749	256.44
438.209	251.44
438.668	273.44
439.127	297.84
439.587	271.34
440.046	258.44
440.505	257.04
440.964	284.54
441.424	330.84
441.883	321.54
442.342	274.14
442.801	226.44
443.26	220.34
443.719	220.54
444.178	216.64
444.637	214.04
445.096	225.74
445.555	228.84
446.014	227.64
446.473	224.84
446.932	236.44
447.391	228.54
447.849	225.04
448.308	218.44
448.767	226.74
449.226	230.74
449.685	238.94
450.143	252.34
450.602	241.64
451.061	234.94
451.519	239.74
451.978	227.24
452.436	236.64
452.895	246.04
453.353	259.74
453.812	245.34
454.27	249.24
454.729	240.64
455.187	237.14
455.646	246.14
456.104	249.94
456.562	261.54
457.021	277.34
457.479	260.24
457.937	275.84
458.395	265.94
458.854	253.74
459.312	260.94
459.77	283.44
460.228	261.24
460.686	241.84
461.144	253.84
461.602	248.54
462.06	240.94
462.518	254.04
462.976	257.94
463.434	265.54
463.892	264.74
464.35	280.34
464.808	293.44
465.266	267.14
465.724	268.24
466.181	275.64
466.639	278.64
467.097	292.44
467.555	299.94
468.012	308.24
468.47	310.34
468.928	335.74
469.385	349.84
469.843	353.44
470.3	349.84
470.758	371.04
471.215	392.14
471.673	423.94
472.13	418.24
472.588	421.54
473.045	374.24
473.503	379.54
473.96	402.44
474.417	407.94
474.875	435.04
475.332	477.74
475.789	464.24
476.246	472.34
476.704	501.94
477.161	517.84
477.618	534.64
478.075	573.74
478.532	633.54
478.989	698.74
479.446	820.04
479.903	796.04
480.36	828.24
480.817	894.64
481.274	990.54
481.731	1102.14
482.188	1189.84
482.645	1334.44
483.102	1452.24
483.558	1564.44
484.015	1634.64
484.472	1616.34
484.929	1553.24
485.385	1511.04
485.842	1460.94
486.299	1397.64
486.755	1328.54
487.212	1114.44
487.668	954.94
488.125	871.74
488.582	793.14
489.038	763.14
489.494	724.34
489.951	700.74
490.407	676.94
490.864	653.94
491.32	656.94
491.776	643.34
492.233	656.44
492.689	618.64
493.145	610.94
493.602	609.94
494.058	616.24
494.514	630.14
494.97	657.64
495.426	660.84
495.882	635.34
496.338	617.64
496.794	632.24
497.251	630.44
497.707	639.44
498.163	638.34
498.618	639.44
499.074	656.84
499.53	688.14
499.986	683.24
500.442	660.44
500.898	639.94
501.354	630.44
501.809	646.14
502.265	650.84
502.721	672.74
503.177	680.94
503.632	676.34
504.088	680.84
504.543	729.44
504.999	714.84
505.455	672.44
505.91	643.04
506.366	642.74
506.821	626.94
507.277	642.64
507.732	641.94
508.187	630.94
508.643	647.04
509.098	640.94
509.553	659.74
510.009	675.44
510.464	677.84
510.919	696.54
511.375	698.24
511.83	710.34
512.285	735.24
512.74	767.44
513.195	792.54
513.65	783.74
514.105	776.54
514.56	791.54
515.015	804.44
515.47	824.74
515.925	808.54
516.38	799.14
516.835	801.74
517.29	795.94
517.745	794.14
518.2	779.54
518.655	754.94
519.109	751.84
519.564	741.94
520.019	731.54
520.474	723.94
520.928	732.34
521.383	725.54
521.838	718.64
522.292	711.34
522.747	704.64
523.201	712.54
523.656	696.14
524.11	705.74
524.565	707.34
525.019	700.34
525.474	712.84
525.928	713.24
526.382	707.04
526.837	707.74
527.291	717.34
527.745	697.34
528.2	708.34
528.654	700.84
529.108	693.74
529.562	696.04
530.016	699.04
530.47	698.44
530.925	700.64
531.379	701.94
531.833	712.34
532.287	701.94
532.741	711.54
533.195	717.74
533.649	719.14
534.103	730.24
534.556	715.44
535.01	708.24
535.464	713.04
535.918	731.54
536.372	724.14
536.826	721.04
537.279	716.74
537.733	712.74
538.187	725.74
538.64	717.44
539.094	719.34
539.548	729.74
540.001	727.64
540.455	731.34
540.908	732.54
541.362	746.74
541.815	748.64
542.269	761.04
542.722	757.64
543.175	770.54
543.629	776.04
544.082	795.74
544.536	796.04
544.989	790.64
545.442	791.54
545.895	795.14
546.349	795.44
546.802	799.54
547.255	798.04
547.708	809.74
548.161	824.44
548.614	818.24
549.067	821.74
549.52	826.24
549.973	813.64
550.426	805.84
550.879	811.14
551.332	795.14
551.785	800.54
552.238	819.24
552.691	824.54
553.144	842.84
553.596	843.94
554.049	875.34
554.502	900.54
554.955	914.14
555.407	918.84
555.86	895.74
556.313	903.34
556.765	888.84
557.218	881.74
557.67	890.34
558.123	880.34
558.576	873.34
559.028	889.34
559.48	890.64
559.933	873.34
560.385	835.04
560.838	814.44
561.29	789.84
561.742	777.14
562.195	771.44
562.647	787.64
563.099	771.84
563.551	767.64
564.004	786.04
564.456	774.04
564.908	769.94
565.36	751.24
565.812	741.34
566.264	721.24
566.716	725.24
567.168	718.34
567.62	726.04
568.072	705.74
568.524	701.34
568.976	694.94
569.428	682.44
569.88	683.04
570.332	691.14
570.784	682.04
571.235	681.94
571.687	690.44
572.139	695.64
572.59	720.34
573.042	716.34
573.494	706.14
573.945	707.94
574.397	686.54
574.849	696.14
575.3	701.14
575.752	681.54
576.203	678.54
576.655	684.44
577.106	670.54
577.557	666.34
578.009	663.64
578.46	660.84
578.912	657.74
579.363	673.04
579.814	674.64
580.265	669.54
580.717	664.44
581.168	675.44
581.619	686.74
582.07	693.64
582.521	672.44
582.972	673.44
583.423	672.24
583.875	675.64
584.326	702.94
584.777	746.44
585.227	822.64
585.678	921.04
586.129	1012.34
586.58	1087.54
587.031	1178.34
587.482	1329.14
587.933	1523.74
588.384	1319.14
588.834	977.74
589.285	809.34
589.736	781.54
590.186	773.94
590.637	758.24
591.088	735.34
591.538	734.64
591.989	723.64
592.439	722.04
592.89	722.64
593.34	706.94
593.791	712.04
594.241	703.94
594.692	704.74
595.142	700.54
595.593	702.14
596.043	708.04
596.493	712.04
596.943	711.04
597.394	718.94
597.844	711.64
598.294	716.64
598.744	743.04
599.195	770.74
599.645	806.64
600.095	852.64
600.545	919.14
600.995	956.34
601.445	1023.44
601.895	1068.14
602.345	1138.84
602.795	1106.64
603.245	1056.94
603.695	1009.24
604.145	946.94
604.594	902.14
605.044	851.14
605.494	797.04
605.944	743.94
606.393	742.74
606.843	724.44
607.293	720.64
607.743	730.74
608.192	747.64
608.642	756.74
609.091	762.84
609.541	768.84
609.99	765.14
610.44	763.54
610.889	725.14
611.339	697.74
611.788	684.74
612.238	692.44
612.687	722.24
613.136	721.64
613.586	728.94
614.035	740.24
614.484	753.44
614.933	755.74
615.383	742.44
615.832	734.94
616.281	722.24
616.73	679.74
617.179	657.34
617.628	645.34
618.077	622.34
618.526	602.04
618.975	619.44
619.424	612.34
619.873	610.24
620.322	610.24
620.771	599.54
621.22	604.24
621.669	584.54
622.118	588.04
622.567	567.54
623.015	569.54
623.464	566.74
623.913	559.44
624.361	547.34
624.81	545.64
625.259	549.24
625.707	542.04
626.156	554.44
626.604	561.54
627.053	554.74
627.501	554.64
627.95	556.64
628.398	573.44
628.847	560.84
629.295	558.54
629.744	566.94
630.192	566.04
630.64	565.14
631.089	552.14
631.537	576.24
631.985	586.44
632.433	589.94
632.881	600.74
633.33	658.24
633.778	639.64
634.226	563.84
634.674	563.14
635.122	566.74
635.57	575.64
636.018	621.84
636.466	575.24
636.914	547.94
637.362	558.14
637.81	562.64
638.258	569.04
638.705	571.34
639.153	596.24
639.601	606.74
640.049	631.84
640.497	661.14
640.944	670.54
641.392	635.64
641.84	606.84
642.287	575.14
642.735	561.84
643.182	565.64
643.63	561.84
644.078	570.24
644.525	580.34
644.973	587.64
645.42	591.24
645.867	609.54
646.315	632.34
646.762	655.54
647.21	683.44
647.657	709.24
648.104	742.74
648.551	763.34
648.999	823.24
649.446	905.74
649.893	1007.24
650.34	1158.14
650.787	1379.04
651.234	1728.74
651.682	2233.44
652.129	3073.94
652.576	4428.74
653.023	6550.84
653.47	8975.34
653.917	11262.74
654.363	13050.14
654.81	14438.34
655.257	13748.84
655.704	8996.04
656.151	5302.64
656.598	3425.94
657.044	2426.54
657.491	1859.64
657.938	1491.84
658.385	1238.84
658.831	1075.94
659.278	947.34
659.724	844.84
660.171	783.64
660.618	719.84
661.064	683.34
661.511	660.14
661.957	648.14
662.404	633.94
662.85	637.64
663.296	616.34
663.743	554.24
664.189	527.34
664.635	526.14
665.082	523.14
665.528	515.24
665.974	510.34
666.42	507.04
666.867	503.14
667.313	484.14
667.759	471.94
668.205	474.44
668.651	475.04
669.097	484.34
669.543	491.74
669.989	470.44
670.435	440.84
670.881	437.04
671.327	443.54
671.773	466.24
672.219	479.74
672.665	530.44
673.11	566.84
673.556	626.34
674.002	653.44
674.448	638.84
674.893	539.84
675.339	463.14
675.785	431.24
676.23	409.74
676.676	385.64
677.122	369.84
677.567	359.24
678.013	360.64
678.458	355.64
678.904	347.64
679.349	340.94
679.794	350.24
680.24	348.24
680.685	345.04
681.131	334.54
681.576	341.64
682.021	340.74
682.466	339.04
682.912	336.64
683.357	354.24
683.802	368.24
684.247	396.64
684.692	442.04
685.137	491.74
685.583	517.74
686.028	546.34
686.473	502.24
686.918	432.84
687.363	403.74
687.807	376.64
688.252	354.54
688.697	352.34
689.142	330.04
689.587	318.54
690.032	321.34
690.477	328.94
690.921	344.34
691.366	372.34
691.811	394.84
692.255	421.94
692.7	451.44
693.145	489.84
693.589	667.44
694.034	1094.34
694.478	1495.84
694.923	1701.24
695.367	2202.04
695.812	1165.24
696.256	490.54
696.701	360.04
697.145	332.24
697.59	326.14
698.034	305.74
698.478	323.04
698.922	323.64
699.367	318.74
699.811	324.94
700.255	338.34
700.699	377.14
701.143	407.24
701.588	466.94
702.032	500.34
702.476	504.04
702.92	469.94
703.364	467.94
703.808	611.54
704.252	991.64
704.696	1393.44
705.14	1620.94
705.584	2073.14
706.027	1043.94
706.471	497.14
706.915	386.34
707.359	342.64
707.803	303.94
708.246	290.94
708.69	306.34
709.134	304.84
709.577	302.84
710.021	312.44
710.465	301.54
710.908	290.04
711.352	291.94
711.795	301.44
712.239	344.64
712.682	381.74
713.126	412.34
713.569	461.54
714.012	367.34
714.456	317.54
714.899	294.14
715.342	266.54
715.786	254.44
716.229	255.84
716.672	243.34
717.115	239.64
717.558	239.74
718.002	241.54
718.445	251.94
718.888	279.34
719.331	286.74
719.774	307.94
720.217	293.34
720.66	271.74
721.103	260.64
721.546	249.54
721.989	249.34
722.432	224.44
722.874	229.04
723.317	227.54
723.76	241.54
724.203	255.44
724.645	309.04
725.088	432.94
725.531	560.54
725.974	628.44
726.416	527.74
726.859	295.54
727.301	233.84
727.744	224.84
728.187	225.64
728.629	230.74
729.071	236.14
729.514	248.44
729.956	260.04
730.399	273.94
730.841	276.24
731.283	267.54
731.726	259.24
732.168	252.24
732.61	264.74
733.053	283.04
733.495	306.84
733.937	336.84
734.379	379.04
734.821	417.84
735.263	524.44
735.705	798.74
736.148	1505.44
736.59	2481.64
737.032	2981.64
737.474	2418.84
737.916	789.14
738.357	412.04
738.799	316.44
739.241	289.14
739.683	279.44
740.125	291.74
740.567	291.84
741.008	309.24
741.45	301.64
741.892	301.64
742.334	329.94
742.775	347.64
743.217	325.64
743.658	261.14
744.1	243.54
744.542	250.84
744.983	303.44
745.425	333.84
745.866	329.44
746.307	275.04
746.749	279.14
747.19	306.94
747.632	422.94
748.073	825.64
748.514	1786.34
748.956	2756.74
749.397	3443.34
749.838	2868.34
750.279	2882.14
750.72	1461.24
751.162	536.84
751.603	306.14
752.044	250.74
752.485	208.74
752.926	203.84
753.367	200.24
753.808	190.74
754.249	183.34
754.69	182.04
755.131	178.64
755.572	182.04
756.013	173.64
756.453	170.94
756.894	181.84
757.335	188.24
757.776	189.54
758.216	186.64
758.657	190.14
759.098	193.74
759.538	217.84
759.979	265.54
760.42	351.84
760.86	661.84
761.301	1721.04
761.741	4222.34
762.182	6252.34
762.622	4416.84
763.063	1262.84
763.503	529.04
763.943	333.84
764.384	340.64
764.824	397.84
765.264	441.84
765.705	305.94
766.145	205.04
766.585	188.94
767.025	179.24
767.465	184.64
767.906	238.64
768.346	319.64
768.786	334.24
769.226	251.14
769.666	307.34
770.106	587.44
770.546	1482.44
770.986	2554.84
771.426	2302.04
771.866	769.44
772.306	320.74
772.745	204.24
773.185	181.54
773.625	169.74
774.065	166.14
774.505	192.44
774.944	299.94
775.384	667.54
775.824	1225.04
776.263	1210.14
776.703	508.64
777.142	223.84
777.582	150.14
778.021	131.14
778.461	136.44
778.9	130.94
779.34	129.34
779.779	114.84
780.219	107.04
780.658	110.84
781.097	109.14
781.537	110.84
781.976	105.14
782.415	99.04
782.855	96.74
783.294	95.44
783.733	107.34
784.172	107.74
784.611	103.44
785.05	105.14
785.489	108.04
785.928	111.54
786.367	114.34
786.806	114.84
787.245	121.64
787.684	130.44
788.123	145.24
788.562	130.24
789.001	123.44
789.44	116.24
789.879	111.54
790.317	114.44
790.756	123.94
791.195	120.24
791.634	144.94
792.072	194.74
792.511	345.14
792.95	946.44
793.388	2066.54
793.827	1901.54
794.265	654.94
794.704	268.54
795.142	180.04
795.581	151.24
796.019	139.14
796.458	121.74
796.896	120.74
797.334	121.24
797.773	152.04
798.211	214.04
798.649	405.94
799.087	972.64
799.526	1538.84
799.964	1937.84
800.402	1953.54
800.84	729.44
801.278	282.34
801.716	178.54
802.154	149.04
802.592	135.24
803.03	134.14
803.468	130.84
803.906	140.24
804.344	142.64
804.782	133.94
805.22	131.84
805.658	124.34
806.096	141.94
806.533	150.44
806.971	161.84
807.409	208.94
807.847	291.74
808.284	623.64
808.722	1770.94
809.16	3155.74
809.597	2960.74
810.035	5194.84
810.472	5618.14
810.91	2009.44
811.347	757.74
811.785	391.64
812.222	248.54
812.66	187.54
813.097	155.94
813.535	146.64
813.972	120.94
814.409	112.94
814.846	104.44
815.284	104.64
815.721	102.24
816.158	106.64
816.595	119.94
817.032	175.54
817.47	193.04
817.907	169.94
818.344	151.54
818.781	117.14
819.218	96.54
819.655	117.84
820.092	173.34
820.529	210.04
820.966	172.74
821.403	128.54
821.839	103.04
822.276	96.24
822.713	115.64
823.15	132.54
823.587	114.34
824.023	141.84
824.46	280.44
824.897	848.74
825.333	1326.34
825.77	572.14
826.206	224.54
826.643	129.64
827.08	94.64
827.516	83.74
827.953	71.04
828.389	72.94
828.825	63.44
829.262	69.44
829.698	60.44
830.135	64.54
830.571	57.74
831.007	54.74
831.443	64.14
831.88	61.24
832.316	63.04
832.752	59.04
833.188	62.74
833.624	59.94
834.06	60.44
834.497	68.34
834.933	71.84
835.369	73.44
835.805	65.94
836.241	70.64
836.677	77.34
837.112	85.94
837.548	101.04
837.984	133.94
838.42	195.64
838.856	470.24
839.292	1438.34
839.727	2219.44
840.163	1037.54
840.599	886.34
841.034	1935.54
841.47	2054.64
841.906	753.04
842.341	324.34
842.777	221.84
843.212	323.74
843.648	316.94
844.083	153.84
844.519	93.34
844.954	71.54
845.39	62.14
845.825	56.34
846.261	55.54
846.696	52.54
847.131	52.44
847.566	58.14
848.002	50.64
848.437	50.74
848.872	60.44
849.307	53.74
849.742	80.54
850.177	177.54
850.613	529.24
851.048	841.54
851.483	369.04
851.918	155.94
852.353	83.44
852.788	64.14
853.223	58.74
853.657	53.64
854.092	50.94
854.527	32.64
854.962	41.24
855.397	43.44
855.832	50.64
856.266	35.74
856.701	38.54
857.136	31.34
857.57	40.44
858.005	44.14
858.44	57.14
858.874	38.84
859.309	47.54
859.743	43.24
860.178	45.44
860.612	34.74
861.047	46.44
861.481	66.54
861.915	68.04
862.35	49.94
862.784	34.84
863.218	33.14
863.653	32.44
864.087	41.54
864.521	50.84
864.955	69.34
865.39	148.04
865.824	170.14
866.258	107.24
866.692	150.14
867.126	162.74
867.56	97.04
867.994	47.54
868.428	33.94
868.862	42.84
869.296	49.64
869.73	52.34
870.164	45.34
870.598	44.64
871.031	33.44
871.465	30.04
871.899	28.44
872.333	30.34
872.766	24.94
873.2	21.14
873.634	28.74
874.067	23.14
874.501	23.44
874.935	25.94
875.368	26.14
875.802	21.94
876.235	25.34
876.669	22.74
877.102	20.74
877.535	22.84
877.969	23.64
878.402	26.54
878.836	17.54
879.269	21.74
879.702	19.94
880.135	23.84
880.569	26.64
881.002	32.24
881.435	19.24
881.868	14.64
882.301	18.44
882.734	14.74
883.167	21.34
883.601	12.44
884.034	21.74
884.467	9.34
884.899	23.04
885.332	17.04
885.765	11.74
886.198	18.14
886.631	19.54
887.064	17.74
887.497	18.94
887.929	19.54
888.362	16.14
888.795	10.84
889.228	15.04
889.66	16.64
890.093	18.74
890.526	12.34
890.958	15.84
891.391	14.34
891.823	19.94
892.256	14.74
892.688	14.34
893.121	13.64
893.553	11.54
893.985	25.64
894.418	22.14
894.85	13.64
895.282	14.24
895.715	13.24
896.147	11.74
896.579	15.74
897.011	12.94
897.444	18.14
897.876	9.04
898.308	12.14
898.74	10.54
899.172	18.74
899.604	22.34
900.036	19.44
900.468	19.84
900.9	9.74
901.332	19.74
901.764	12.74
902.196	20.54
902.628	11.24
903.06	13.84
903.491	31.54
903.923	24.84
904.355	17.54
904.787	22.64
905.218	19.84
905.65	19.54
906.082	12.84
906.513	11.44
906.945	21.84
907.376	8.24
907.808	16.24
908.239	23.34
908.671	21.24
909.102	16.84
909.534	20.04
909.965	54.04
910.397	86.24
910.828	299.14
911.259	447.34
911.691	207.44
912.122	105.24
912.553	44.94
912.984	36.84
913.415	29.24
913.847	27.04
914.278	12.64
914.709	15.64
915.14	19.04
915.571	19.94
916.002	8.54
916.433	17.44
916.864	15.14
917.295	15.74
917.726	16.24
918.157	13.44
918.587	26.64
919.018	20.44
919.449	20.44
919.88	24.84
920.311	28.94
920.741	42.84
921.172	153.34
921.603	148.54
922.033	64.64
922.464	43.74
922.895	16.54
923.325	14.94
923.756	18.64
924.186	20.54
924.617	23.54
925.047	40.74
925.478	49.14
925.908	42.94
926.338	21.44
926.769	24.94
927.199	21.24
927.629	9.44
928.06	10.04
928.49	15.74
928.92	16.64
929.35	18.64
929.78	6.94
930.21	9.74
930.641	10.64
931.071	9.14
931.501	7.04
931.931	5.84
932.361	6.14
932.791	0.14
933.221	5.94
933.651	-1.66
934.08	17.14
934.51	26.14
934.94	9.34
935.37	7.74
935.8	9.14
936.229	9.64
936.659	8.54
937.089	2.24
937.519	11.44
937.948	26.74
938.378	21.44
938.807	4.84
939.237	3.74
939.666	9.24
940.096	-6.96
940.525	1.94
940.955	5.34
941.384	0.94
941.814	-4.06
942.243	-4.26
942.672	0.84
943.102	-4.76
943.531	-4.56
943.96	2.34
944.39	-1.16
944.819	0.94
945.248	3.64
945.677	0.84
946.106	7.34
946.535	5.14
946.964	-1.16
947.393	4.24
947.822	-1.46
948.251	-2.36
948.68	-0.46
949.109	4.64
949.538	10.14
949.967	-0.96
950.396	-1.26
950.825	-2.06
951.254	-0.46
951.682	-2.36
952.111	0.74
952.54	0.14
952.969	-3.66
953.397	-2.76
953.826	-1.96
954.254	-8.86
954.683	-1.86
955.112	-3.86
955.54	-4.46
955.969	0.44
956.397	3.74
956.826	-4.76
957.254	3.94
957.682	-0.06
958.111	-0.46
958.539	-0.56
958.967	0.44
959.396	-3.96
959.824	-3.96
960.252	-1.36
960.68	-6.66
961.109	-2.96
961.537	-7.66
961.965	1.64
962.393	1.24
962.821	-3.26
963.249	4.84
963.677	1.34
964.105	5.54
964.533	38.74
964.961	43.64
965.389	19.94
965.817	9.64
966.245	6.44
966.672	4.24
967.1	-7.16
967.528	-3.36
967.956	-1.66
968.383	-2.76
968.811	-5.16
969.239	-4.16
969.666	-1.66
970.094	1.64
970.522	1.14
970.949	0.14
971.377	-11.16
971.804	-2.56
972.232	-0.56
972.659	-1.36
973.087	-4.36
973.514	-1.56
973.941	-9.36
974.369	0.04
974.796	0.54
975.223	2.24
975.651	-5.66
976.078	3.94
976.505	-2.16
976.932	0.94
977.359	10.54
977.786	10.34
978.214	-0.16
978.641	-6.06
979.068	-3.96
979.495	-2.96
979.922	-2.46
980.349	-4.16
980.776	7.74
981.202	-2.66
981.629	4.74
982.056	5.44
982.483	-1.36
982.91	6.14
983.337	-8.26
983.763	0.54
984.19	-2.16
984.617	-9.26
985.043	-6.76
985.47	-2.56
985.897	-0.06
986.323	-14.36
986.75	2.74
987.176	-0.46
987.603	-3.46
988.029	0.34
988.456	-5.46
988.882	1.94
989.308	-6.66
989.735	-0.76
990.161	0.64
990.587	-1.66
991.014	-6.66
991.44	7.14
991.866	1.44
992.292	-1.66
992.719	-4.36
993.145	-0.86
993.571	-8.96
993.997	-5.16
994.423	-3.66
994.849	-2.66
995.275	1.74
995.701	5.64
996.127	-3.86
996.553	4.34
996.979	-6.16
997.405	-4.16
997.83	-2.56
998.256	-4.46
998.682	-7.66
999.108	-6.86
999.534	-3.66
999.959	3.04
1000.385	-6.46
1000.811	-1.96
1001.236	-6.06
1001.662	-8.16
1002.087	-10.76
1002.513	2.64
1002.938	1.14
1003.364	-2.76
1003.789	-1.96
1004.215	4.84
1004.64	-1.16
1005.066	-3.06
1005.491	-4.26
1005.916	0.54
1006.342	-7.26
1006.767	-13.96
1007.192	6.24
1007.617	-8.96
1008.042	-4.46
1008.468	-13.76
1008.893	-2.76
1009.318	-6.26
1009.743	0.84
1010.168	1.34
1010.593	0.44
1011.018	-9.26
1011.443	-8.66
1011.868	-2.96
1012.293	-6.56
1012.718	-8.86
1013.143	-0.86
1013.567	1.14
1013.992	-4.76
1014.417	-7.46
1014.842	0.54
1015.267	-5.36
1015.691	-5.26
1016.116	6.24
1016.541	-2.56
1016.965	1.14
1017.39	2.54
1017.814	-0.86
1018.239	0.54
1018.663	-10.26
1019.088	-9.96
1019.512	3.34
1019.937	-2.86
1020.361	-6.26
1020.785	-13.16
1021.21	-3.56
1021.634	-2.66
1022.058	0.34
1022.483	-1.46
1022.907	-2.66
1023.331	-3.16
1023.755	-4.36
1024.179	-3.36
1024.604	-9.26
1025.028	-4.56
1025.452	-6.76
1025.876	-2.96
1026.3	3.44
1026.724	-11.96
1027.148	-5.76
1027.572	-6.36
1027.996	-3.56
1028.42	-8.16
1028.843	-0.26
1029.267	-6.46
1029.691	-1.86
1030.115	-9.66
1030.539	-12.66
1030.962	-4.46
1031.386	-8.36
1031.81	2.44
1032.233	-3.76
1032.657	-2.06
1033.08	0.84
1033.504	-7.86
1033.927	-8.46
1034.351	-4.46
1034.774	-6.26
1035.198	-2.96
1035.621	-1.26
1036.045	-5.26
1036.468	0.64
1036.891	0.84
1037.315	-9.76
1037.738	-15.66
1038.161	1.54
1038.584	-7.56
1039.008	-7.96
1039.431	-2.56
1039.854	-5.26
1040.277	-6.86
1040.7	-8.86
1041.123	-1.06
1041.546	-4.86
1041.969	-12.26
1042.392	-8.06
1042.815	-2.66
1043.238	-0.36
1043.661	-3.56
1044.084	-11.96
1044.507	-1.86
1044.93	-7.96
1045.352	-5.56
1045.775	-2.46
1046.198	-1.46
1046.621	-4.66
1047.043	-1.26
1047.466	10.24
1047.889	-4.56
1048.311	-4.86
1048.734	-2.56
1049.156	-7.86
1049.579	2.44
1050.001	-2.76
1050.424	2.04
1050.846	-7.56
1051.269	-8.96
1051.691	-2.46
1052.113	-7.06
1052.536	-2.36
1052.958	-5.66
1053.38	-5.36
1053.802	-9.56
1054.225	-3.76
1054.647	-3.26
1055.069	-6.06
1055.491	-1.26
1055.913	-14.36
1056.335	-1.56
1056.757	-3.16
1057.179	-9.96
1057.601	-8.16
1058.023	1.74
1058.445	-4.36
1058.867	-7.96
1059.289	-0.16
1059.711	-6.16
1060.133	-1.06
1060.555	-10.26
1060.976	-6.36
1061.398	-4.36
1061.82	-9.86
1062.241	-8.46
1062.663	-11.96
1063.085	1.74
1063.506	-4.86
1063.928	-5.56
1064.35	-6.76
1064.771	-10.66
1065.193	-3.46
1065.614	-12.96
1066.035	-1.86
1066.457	-8.66
1066.878	2.94
1067.3	-7.56
1067.721	-9.06
1068.142	-5.66
1068.564	-4.76
1068.985	-7.26
1069.406	-4.86
1069.827	-7.26
1070.248	-1.46
1070.67	-10.06
1071.091	-8.96
1071.512	-3.16
1071.933	-5.16
1072.354	-6.86
1072.775	-4.76
1073.196	-7.06
1073.617	-0.46
1074.038	-11.66
1074.459	-4.16
1074.88	-7.96
1075.3	0.54
1075.721	-6.46
1076.142	2.64
1076.563	-6.66
1076.983	-12.96
1077.404	-6.56
1077.825	-13.06
1078.246	-7.76
1078.666	-11.76
1079.087	-2.46
1079.507	-6.56
1079.928	-2.36
1080.348	-5.96
1080.769	-0.16
1081.189	-1.36
1081.61	-5.96
1082.03	-6.86
1082.451	-10.56
1082.871	-3.96
1083.291	-9.46
1083.711	-15.96
1084.132	-4.56
1084.552	-4.36
1084.972	-1.66
1085.392	-11.46
1085.813	-8.46
1086.233	-8.66
1086.653	-8.16
1087.073	-2.46
1087.493	-10.36
1087.913	-7.86
1088.333	-8.96
1088.753	-2.46
1089.173	2.14
1089.593	-2.16
1090.013	-2.96
1090.433	-0.86
1090.852	-2.36
1091.272	-2.66
1091.692	-0.86
1092.112	-5.96
1092.531	-9.66
1092.951	-13.16
1093.371	-4.86
1093.79	1.14
1094.21	-2.16
1094.63	-9.66
1095.049	-4.56
1095.469	-8.76
1095.888	-2.86
1096.308	3.64
1096.727	5.04
1097.146	-2.76
1097.566	-2.36
1097.985	-2.76
1098.405	-4.16
1098.824	-5.86
1099.243	-4.46
1099.662	-5.26
1100.082	0.04
1100.501	-0.36
1100.92	-7.16
1101.339	-4.46
1101.758	-6.66
