Data from 20171114-ORNL-Ar_H_NY_Subt18_08-08-40-771.txt Node
Date: Tue Nov 14 08:08:40 EST 2017
User: Ender
Spectrometer: HR+D1039
Trigger mode: 0
Integration Time (sec): 2.730000E-2
Scans to average: 10
Electric dark correction enabled: true
Nonlinearity correction enabled: false
Boxcar width: 0
XAxis mode: Wavelengths
Number of Pixels in Spectrum: 2048
>>>>>Begin Spectral Data<<<<<
187.836	-2.04
188.309	-2.04
188.782	-2.04
189.255	4.06
189.728	2.46
190.201	3.66
190.674	1.56
191.147	1.16
191.619	-9.34
192.092	1.86
192.565	0.66
193.038	0.76
193.511	-0.44
193.984	-6.34
194.456	-0.94
194.929	1.96
195.402	-2.54
195.874	3.46
196.347	-0.44
196.82	-0.54
197.292	11.16
197.765	1.26
198.237	-7.14
198.71	2.36
199.182	-4.44
199.655	4.06
200.127	2.76
200.6	-3.14
201.072	-0.04
201.544	-3.04
202.017	-0.24
202.489	2.46
202.961	-1.84
203.433	1.46
203.906	-10.64
204.378	-10.04
204.85	-2.44
205.322	-7.34
205.794	-3.04
206.266	-4.64
206.739	-7.14
207.211	3.66
207.683	-5.94
208.155	-3.74
208.627	-4.94
209.099	-8.94
209.57	-7.84
210.042	0.16
210.514	-4.14
210.986	-3.04
211.458	-11.84
211.93	1.66
212.402	-0.84
212.873	-9.44
213.345	-6.24
213.817	-10.84
214.288	-4.94
214.76	-13.14
215.232	-1.94
215.703	-3.44
216.175	-2.74
216.646	-5.54
217.118	-4.34
217.589	-1.54
218.061	-3.24
218.532	-3.34
219.004	-4.94
219.475	-0.84
219.946	-1.34
220.418	-5.54
220.889	2.66
221.36	1.66
221.832	-8.04
222.303	-5.24
222.774	0.86
223.245	-12.24
223.717	-4.24
224.188	-7.54
224.659	-9.84
225.13	-8.64
225.601	-4.24
226.072	-0.14
226.543	-3.84
227.014	0.16
227.485	-0.84
227.956	-9.04
228.427	-4.34
228.898	1.46
229.369	10.16
229.839	1.96
230.31	-1.84
230.781	-2.14
231.252	-0.44
231.722	-6.34
232.193	-0.84
232.664	-3.34
233.135	-5.44
233.605	-3.74
234.076	-5.54
234.546	-6.14
235.017	4.06
235.487	-1.54
235.958	-5.84
236.428	-3.94
236.899	-3.04
237.369	0.96
237.84	-7.34
238.31	-0.44
238.78	-7.54
239.251	-5.94
239.721	-4.34
240.191	-5.94
240.662	-3.94
241.132	-2.04
241.602	-2.64
242.072	-2.74
242.542	1.26
243.013	-8.94
243.483	0.16
243.953	1.46
244.423	-3.54
244.893	-2.34
245.363	4.36
245.833	-2.04
246.303	-7.44
246.773	6.86
247.243	-1.54
247.712	-1.64
248.182	4.96
248.652	-0.04
249.122	-3.64
249.592	-3.64
250.061	4.96
250.531	3.06
251.001	0.96
251.471	4.16
251.94	6.06
252.41	-3.24
252.879	-5.34
253.349	5.76
253.818	3.86
254.288	0.36
254.757	-1.74
255.227	0.76
255.696	-2.04
256.166	0.06
256.635	2.86
257.105	6.96
257.574	-0.84
258.043	0.56
258.513	-7.84
258.982	4.06
259.451	1.36
259.92	2.26
260.389	-1.34
260.859	5.56
261.328	1.86
261.797	0.36
262.266	0.16
262.735	10.66
263.204	6.06
263.673	1.66
264.142	3.06
264.611	-0.44
265.08	-0.44
265.549	-3.54
266.018	-0.44
266.487	-1.54
266.955	-7.94
267.424	0.66
267.893	6.86
268.362	-1.94
268.83	2.66
269.299	8.26
269.768	-0.54
270.236	2.36
270.705	-4.64
271.174	4.36
271.642	5.46
272.111	2.86
272.579	5.96
273.048	6.66
273.516	1.16
273.985	7.36
274.453	9.06
274.922	9.76
275.39	10.26
275.858	1.56
276.327	12.46
276.795	21.26
277.263	3.36
277.731	13.16
278.2	16.46
278.668	12.36
279.136	20.36
279.604	7.06
280.072	7.56
280.54	7.96
281.008	-0.44
281.477	12.46
281.945	4.66
282.413	8.96
282.881	6.76
283.348	-0.44
283.816	9.06
284.284	7.36
284.752	17.46
285.22	9.76
285.688	11.26
286.156	9.26
286.623	16.96
287.091	8.66
287.559	10.66
288.026	13.16
288.494	10.96
288.962	-0.24
289.429	0.26
289.897	9.96
290.364	6.46
290.832	14.16
291.3	9.26
291.767	12.66
292.234	14.16
292.702	3.56
293.169	17.16
293.637	19.46
294.104	20.16
294.571	4.66
295.039	11.66
295.506	9.86
295.973	10.26
296.44	17.76
296.908	11.46
297.375	10.16
297.842	13.26
298.309	13.16
298.776	8.16
299.243	21.66
299.71	10.66
300.177	14.66
300.644	17.16
301.111	19.06
301.578	15.86
302.045	11.96
302.512	24.26
302.979	19.16
303.446	17.06
303.913	10.76
304.379	12.36
304.846	23.56
305.313	18.36
305.78	21.26
306.246	18.26
306.713	17.46
307.18	18.06
307.646	19.36
308.113	23.66
308.579	17.66
309.046	20.06
309.512	24.06
309.979	15.86
310.445	24.26
310.912	25.06
311.378	27.56
311.845	34.36
312.311	23.26
312.777	29.86
313.244	26.76
313.71	27.46
314.176	20.06
314.642	22.36
315.109	26.96
315.575	28.86
316.041	36.56
316.507	25.36
316.973	29.66
317.439	23.66
317.905	26.86
318.371	27.36
318.837	26.16
319.303	30.86
319.769	29.26
320.235	34.16
320.701	29.46
321.167	28.76
321.633	30.16
322.099	34.76
322.564	34.66
323.03	27.16
323.496	32.76
323.962	29.66
324.427	31.36
324.893	41.76
325.359	29.46
325.824	33.36
326.29	31.76
326.755	33.76
327.221	30.36
327.686	34.36
328.152	43.06
328.617	32.76
329.083	35.36
329.548	40.26
330.014	39.16
330.479	39.66
330.944	39.86
331.41	31.06
331.875	43.16
332.34	32.96
332.805	38.96
333.271	41.36
333.736	37.06
334.201	41.36
334.666	40.06
335.131	49.76
335.596	45.96
336.061	41.06
336.526	35.06
336.991	41.36
337.456	44.96
337.921	43.16
338.386	42.26
338.851	44.76
339.316	43.66
339.781	42.26
340.246	50.86
340.711	47.16
341.175	50.06
341.64	42.76
342.105	49.46
342.569	48.06
343.034	46.66
343.499	50.56
343.963	50.96
344.428	59.36
344.893	56.36
345.357	56.76
345.822	51.96
346.286	61.66
346.751	65.16
347.215	58.16
347.679	67.06
348.144	83.06
348.608	73.96
349.073	65.76
349.537	66.16
350.001	72.26
350.465	84.56
350.93	72.76
351.394	76.16
351.858	64.76
352.322	77.86
352.786	73.46
353.25	90.26
353.715	101.56
354.179	88.86
354.643	109.86
355.107	114.56
355.571	93.46
356.035	94.96
356.498	101.16
356.962	109.66
357.426	117.46
357.89	104.46
358.354	82.06
358.818	75.16
359.281	72.86
359.745	65.86
360.209	76.26
360.673	70.36
361.136	72.96
361.6	73.76
362.064	78.36
362.527	72.86
362.991	83.96
363.454	81.96
363.918	77.46
364.381	76.46
364.845	78.46
365.308	82.26
365.772	79.06
366.235	81.36
366.698	74.26
367.162	79.96
367.625	74.36
368.088	81.66
368.552	83.36
369.015	82.66
369.478	87.66
369.941	96.46
370.404	86.86
370.867	92.06
371.331	101.66
371.794	98.76
372.257	94.16
372.72	103.16
373.183	102.26
373.646	100.96
374.109	98.06
374.572	96.36
375.035	102.16
375.497	105.76
375.96	102.36
376.423	96.36
376.886	111.96
377.349	106.96
377.811	93.66
378.274	98.76
378.737	93.76
379.199	99.36
379.662	99.46
380.125	106.16
380.587	107.06
381.05	104.96
381.512	113.56
381.975	118.06
382.437	107.96
382.9	115.76
383.362	114.66
383.825	122.26
384.287	124.46
384.75	116.96
385.212	123.96
385.674	124.46
386.136	134.96
386.599	114.26
387.061	121.46
387.523	123.66
387.985	125.56
388.447	131.86
388.91	121.16
389.372	128.46
389.834	128.26
390.296	129.36
390.758	134.36
391.22	142.06
391.682	149.86
392.144	167.86
392.606	151.66
393.068	143.46
393.529	152.06
393.991	143.96
394.453	129.56
394.915	135.76
395.377	141.46
395.838	146.46
396.3	135.46
396.762	141.36
397.224	128.16
397.685	130.06
398.147	129.26
398.608	136.66
399.07	130.56
399.531	139.26
399.993	148.36
400.454	153.46
400.916	151.96
401.377	145.06
401.839	150.36
402.3	157.96
402.762	168.26
403.223	180.66
403.684	174.86
404.145	163.56
404.607	157.06
405.068	160.56
405.529	169.36
405.99	186.66
406.451	175.16
406.913	175.26
407.374	164.06
407.835	167.56
408.296	163.46
408.757	170.86
409.218	187.96
409.679	180.16
410.14	177.76
410.601	174.76
411.062	188.06
411.522	181.76
411.983	184.26
412.444	179.06
412.905	179.86
413.366	188.66
413.826	199.46
414.287	220.26
414.748	270.76
415.208	256.66
415.669	224.26
416.13	215.76
416.59	205.36
417.051	218.56
417.511	223.06
417.972	249.26
418.432	253.96
418.893	302.06
419.353	258.66
419.814	206.46
420.274	190.06
420.734	187.96
421.195	203.06
421.655	198.36
422.115	205.36
422.576	200.56
423.036	207.46
423.496	214.16
423.956	225.36
424.416	243.66
424.876	277.46
425.336	271.56
425.797	273.76
426.257	263.36
426.717	241.46
427.177	240.26
427.637	220.86
428.097	238.86
428.556	250.56
429.016	270.66
429.476	263.56
429.936	272.66
430.396	282.16
430.856	288.66
431.315	309.56
431.775	346.56
432.235	379.76
432.694	356.56
433.154	361.16
433.614	396.16
434.073	335.46
434.533	295.06
434.993	266.06
435.452	281.26
435.912	296.46
436.371	287.26
436.83	290.66
437.29	271.56
437.749	253.76
438.209	258.36
438.668	282.86
439.127	287.46
439.587	266.36
440.046	259.26
440.505	264.76
440.964	285.86
441.424	324.56
441.883	313.06
442.342	277.96
442.801	235.16
443.26	231.46
443.719	237.56
444.178	232.26
444.637	219.86
445.096	241.56
445.555	240.96
446.014	235.16
446.473	244.76
446.932	247.56
447.391	244.06
447.849	238.76
448.308	233.76
448.767	230.66
449.226	248.26
449.685	250.86
450.143	258.76
450.602	250.96
451.061	242.96
451.519	247.86
451.978	242.86
452.436	250.26
452.895	246.76
453.353	270.06
453.812	252.96
454.27	253.06
454.729	249.06
455.187	257.86
455.646	260.06
456.104	272.16
456.562	277.06
457.021	279.06
457.479	272.06
457.937	289.46
458.395	278.76
458.854	263.26
459.312	269.36
459.77	290.76
460.228	267.26
460.686	251.16
461.144	260.76
461.602	257.06
462.06	257.76
462.518	275.26
462.976	264.76
463.434	276.06
463.892	278.16
464.35	289.16
464.808	302.46
465.266	283.06
465.724	286.96
466.181	287.86
466.639	280.46
467.097	306.96
467.555	313.66
468.012	317.36
468.47	328.36
468.928	344.06
469.385	352.56
469.843	367.26
470.3	371.96
470.758	374.56
471.215	401.76
471.673	427.26
472.13	421.56
472.588	434.96
473.045	392.76
473.503	401.26
473.96	409.16
474.417	419.36
474.875	452.56
475.332	491.66
475.789	488.26
476.246	481.96
476.704	497.36
477.161	528.36
477.618	536.36
478.075	580.36
478.532	637.66
478.989	705.26
479.446	813.96
479.903	775.76
480.36	809.76
480.817	864.46
481.274	951.56
481.731	1027.86
482.188	1120.06
482.645	1246.86
483.102	1328.16
483.558	1463.36
484.015	1492.46
484.472	1472.96
484.929	1426.26
485.385	1392.56
485.842	1359.66
486.299	1311.66
486.755	1254.66
487.212	1084.66
487.668	914.06
488.125	848.66
488.582	793.06
489.038	757.26
489.494	725.06
489.951	696.56
490.407	690.06
490.864	655.36
491.32	672.56
491.776	668.46
492.233	664.06
492.689	643.16
493.145	626.96
493.602	620.06
494.058	640.16
494.514	637.16
494.97	660.46
495.426	677.46
495.882	643.36
496.338	641.06
496.794	641.66
497.251	642.96
497.707	650.06
498.163	663.16
498.618	657.36
499.074	661.66
499.53	697.76
499.986	686.96
500.442	664.76
500.898	646.86
501.354	637.46
501.809	651.06
502.265	648.16
502.721	660.46
503.177	668.26
503.632	673.46
504.088	677.16
504.543	701.06
504.999	719.76
505.455	681.56
505.91	667.36
506.366	659.96
506.821	663.36
507.277	666.96
507.732	665.06
508.187	669.96
508.643	675.16
509.098	671.86
509.553	690.06
510.009	691.56
510.464	709.16
510.919	718.36
511.375	731.96
511.83	738.46
512.285	749.06
512.74	789.06
513.195	814.36
513.65	802.86
514.105	796.86
514.56	784.66
515.015	821.76
515.47	830.86
515.925	813.26
516.38	809.06
516.835	824.56
517.29	815.06
517.745	809.86
518.2	801.06
518.655	782.36
519.109	783.26
519.564	771.36
520.019	764.46
520.474	755.86
520.928	766.26
521.383	757.86
521.838	745.06
522.292	742.06
522.747	740.46
523.201	746.86
523.656	734.16
524.11	731.36
524.565	728.16
525.019	722.66
525.474	720.86
525.928	731.96
526.382	728.96
526.837	732.86
527.291	742.06
527.745	728.26
528.2	735.26
528.654	711.36
529.108	725.16
529.562	720.56
530.016	729.46
530.47	719.36
530.925	714.76
531.379	724.96
531.833	730.76
532.287	725.06
532.741	728.26
533.195	735.36
533.649	754.06
534.103	749.16
534.556	731.26
535.01	742.66
535.464	733.06
535.918	744.86
536.372	756.66
536.826	749.06
537.279	730.56
537.733	747.56
538.187	746.66
538.64	744.16
539.094	747.96
539.548	762.76
540.001	749.16
540.455	756.56
540.908	769.36
541.362	763.56
541.815	789.46
542.269	793.16
542.722	797.36
543.175	797.36
543.629	805.46
544.082	827.06
544.536	829.46
544.989	829.16
545.442	832.36
545.895	824.36
546.349	836.26
546.802	836.96
547.255	837.16
547.708	850.26
548.161	856.36
548.614	860.86
549.067	856.96
549.52	856.96
549.973	844.26
550.426	852.76
550.879	833.26
551.332	841.56
551.785	846.76
552.238	852.46
552.691	866.66
553.144	868.16
553.596	897.56
554.049	910.06
554.502	935.46
554.955	955.86
555.407	952.26
555.86	952.36
556.313	943.76
556.765	926.36
557.218	928.66
557.67	924.56
558.123	921.66
558.576	919.36
559.028	914.86
559.48	925.06
559.933	917.36
560.385	883.16
560.838	856.16
561.29	839.46
561.742	841.06
562.195	808.66
562.647	803.66
563.099	820.06
563.551	815.26
564.004	816.66
564.456	818.86
564.908	800.76
565.36	778.16
565.812	757.06
566.264	751.16
566.716	754.86
567.168	747.56
567.62	748.76
568.072	738.96
568.524	729.66
568.976	724.06
569.428	713.36
569.88	712.36
570.332	721.36
570.784	723.46
571.235	716.06
571.687	739.86
572.139	740.36
572.59	751.36
573.042	753.36
573.494	741.96
573.945	742.06
574.397	719.46
574.849	729.66
575.3	731.36
575.752	726.66
576.203	713.76
576.655	721.96
577.106	703.66
577.557	700.36
578.009	715.56
578.46	701.46
578.912	699.16
579.363	710.36
579.814	705.06
580.265	698.46
580.717	709.16
581.168	710.96
581.619	709.96
582.07	714.46
582.521	704.36
582.972	704.36
583.423	702.16
583.875	705.76
584.326	718.56
584.777	744.56
585.227	764.96
585.678	793.96
586.129	816.76
586.58	851.46
587.031	876.76
587.482	918.46
587.933	976.26
588.384	928.06
588.834	845.36
589.285	823.76
589.736	807.56
590.186	806.86
590.637	809.66
591.088	793.56
591.538	778.26
591.989	768.36
592.439	762.06
592.89	767.36
593.34	749.26
593.791	740.16
594.241	733.66
594.692	735.06
595.142	731.56
595.593	724.96
596.043	738.36
596.493	742.86
596.943	746.36
597.394	760.06
597.844	753.26
598.294	765.16
598.744	797.16
599.195	812.76
599.645	863.76
600.095	905.66
600.545	959.46
600.995	1015.76
601.445	1082.06
601.895	1148.06
602.345	1203.46
602.795	1173.96
603.245	1123.76
603.695	1064.46
604.145	1008.26
604.594	965.46
605.044	907.46
605.494	841.26
605.944	802.46
606.393	788.16
606.843	767.06
607.293	771.56
607.743	772.46
608.192	776.36
608.642	793.86
609.091	798.56
609.541	786.96
609.99	812.16
610.44	805.96
610.889	749.76
611.339	725.66
611.788	714.06
612.238	724.76
612.687	735.46
613.136	740.26
613.586	753.56
614.035	732.96
614.484	757.06
614.933	755.86
615.383	751.76
615.832	743.96
616.281	738.36
616.73	705.06
617.179	691.46
617.628	677.86
618.077	665.66
618.526	649.16
618.975	651.96
619.424	645.26
619.873	639.26
620.322	657.26
620.771	635.96
621.22	638.66
621.669	629.56
622.118	621.86
622.567	605.96
623.015	598.96
623.464	600.96
623.913	586.06
624.361	582.26
624.81	589.86
625.259	580.36
625.707	581.96
626.156	581.16
626.604	593.26
627.053	599.96
627.501	598.46
627.95	598.46
628.398	618.66
628.847	603.16
629.295	601.56
629.744	612.96
630.192	602.26
630.64	591.76
631.089	568.06
631.537	574.46
631.985	562.26
632.433	573.76
632.881	563.36
633.33	566.86
633.778	564.26
634.226	547.86
634.674	568.36
635.122	563.76
635.57	579.86
636.018	597.26
636.466	600.16
636.914	593.26
637.362	605.26
637.81	611.86
638.258	614.36
638.705	611.06
639.153	649.76
639.601	660.36
640.049	682.46
640.497	708.16
640.944	725.26
641.392	682.36
641.84	638.86
642.287	614.96
642.735	591.66
643.182	598.16
643.63	594.96
644.078	600.66
644.525	608.56
644.973	610.66
645.42	620.26
645.867	642.76
646.315	666.66
646.762	696.06
647.21	717.06
647.657	737.36
648.104	779.26
648.551	782.56
648.999	857.36
649.446	929.26
649.893	1020.26
650.34	1181.86
650.787	1385.76
651.234	1709.76
651.682	2216.96
652.129	3010.76
652.576	4288.46
653.023	6242.56
653.47	8394.06
653.917	10408.26
654.363	11890.96
654.81	12993.76
655.257	12328.76
655.704	8217.16
656.151	4916.36
656.598	3277.16
657.044	2336.46
657.491	1803.06
657.938	1447.06
658.385	1236.56
658.831	1088.76
659.278	970.76
659.724	865.06
660.171	805.76
660.618	738.56
661.064	710.26
661.511	686.96
661.957	674.96
662.404	664.86
662.85	673.76
663.296	654.36
663.743	589.66
664.189	563.86
664.635	563.56
665.082	557.56
665.528	556.06
665.974	541.06
666.42	536.16
666.867	525.26
667.313	513.46
667.759	498.96
668.205	479.46
668.651	479.86
669.097	477.56
669.543	476.16
669.989	470.76
670.435	474.46
670.881	471.66
671.327	474.96
671.773	494.76
672.219	521.76
672.665	587.06
673.11	622.16
673.556	664.96
674.002	709.36
674.448	692.56
674.893	584.06
675.339	510.66
675.785	472.56
676.23	456.16
676.676	418.06
677.122	411.66
677.567	402.36
678.013	386.26
678.458	381.46
678.904	381.56
679.349	367.96
679.794	382.36
680.24	373.96
680.685	370.56
681.131	376.86
681.576	368.86
682.021	382.46
682.466	374.16
682.912	367.66
683.357	371.96
683.802	411.56
684.247	444.16
684.692	483.26
685.137	528.86
685.583	574.96
686.028	593.36
686.473	547.66
686.918	467.06
687.363	443.36
687.807	420.56
688.252	391.16
688.697	374.36
689.142	364.36
689.587	357.46
690.032	347.86
690.477	375.86
690.921	375.76
691.366	411.46
691.811	433.66
692.255	458.06
692.7	493.16
693.145	542.86
693.589	768.06
694.034	1237.96
694.478	1683.56
694.923	1847.66
695.367	2388.86
695.812	1278.46
696.256	530.26
696.701	399.66
697.145	369.96
697.59	351.06
698.034	344.66
698.478	355.26
698.922	339.36
699.367	344.56
699.811	358.76
700.255	380.76
700.699	406.76
701.143	449.56
701.588	511.16
702.032	541.96
702.476	546.76
702.92	527.16
703.364	534.16
703.808	702.86
704.252	1137.76
704.696	1585.86
705.14	1760.06
705.584	2264.56
706.027	1145.06
706.471	571.26
706.915	429.16
707.359	380.86
707.803	347.26
708.246	332.36
708.69	340.66
709.134	340.46
709.577	331.86
710.021	341.96
710.465	328.56
710.908	318.36
711.352	314.46
711.795	334.66
712.239	382.06
712.682	418.36
713.126	443.96
713.569	479.96
714.012	379.46
714.456	332.76
714.899	309.86
715.342	290.36
715.786	281.16
716.229	276.66
716.672	276.36
717.115	257.56
717.558	262.36
718.002	270.66
718.445	280.46
718.888	301.56
719.331	319.56
719.774	326.06
720.217	327.66
720.66	300.16
721.103	280.06
721.546	275.46
721.989	269.86
722.432	252.86
722.874	252.36
723.317	248.76
723.76	253.76
724.203	280.26
724.645	347.76
725.088	478.06
725.531	606.76
725.974	679.16
726.416	582.96
726.859	333.06
727.301	265.66
727.744	251.96
728.187	245.36
728.629	255.66
729.071	258.36
729.514	277.86
729.956	290.16
730.399	301.96
730.841	305.76
731.283	293.46
731.726	290.26
732.168	280.86
732.61	289.36
733.053	315.76
733.495	344.96
733.937	380.66
734.379	439.46
734.821	473.96
735.263	599.86
735.705	932.26
736.148	1757.16
736.59	2817.96
737.032	3235.26
737.474	2643.96
737.916	876.86
738.357	462.56
738.799	349.66
739.241	314.76
739.683	307.96
740.125	317.06
740.567	320.46
741.008	345.06
741.45	341.86
741.892	343.76
742.334	372.96
742.775	389.56
743.217	368.16
743.658	296.36
744.1	275.06
744.542	283.46
744.983	331.86
745.425	367.26
745.866	367.06
746.307	300.96
746.749	299.46
747.19	345.46
747.632	505.76
748.073	996.76
748.514	2067.56
748.956	3080.26
749.397	3869.66
749.838	3228.46
750.279	3142.76
750.72	1608.96
751.162	592.96
751.603	353.46
752.044	268.06
752.485	226.06
752.926	224.76
753.367	219.56
753.808	211.16
754.249	203.36
754.69	202.96
755.131	190.86
755.572	191.96
756.013	193.56
756.453	194.76
756.894	200.96
757.335	201.96
757.776	206.76
758.216	212.66
758.657	214.76
759.098	216.86
759.538	239.76
759.979	289.76
760.42	415.86
760.86	791.66
761.301	2075.76
761.741	4898.26
762.182	6764.46
762.622	4804.66
763.063	1426.86
763.503	583.46
763.943	367.36
764.384	302.86
764.824	285.86
765.264	287.46
765.705	233.56
766.145	198.46
766.585	190.66
767.025	181.26
767.465	176.06
767.906	208.06
768.346	229.46
768.786	250.26
769.226	233.76
769.666	346.06
770.106	693.36
770.546	1743.06
770.986	2809.46
771.426	2478.66
771.866	855.46
772.306	360.66
772.745	220.16
773.185	180.76
773.625	174.06
774.065	167.26
774.505	178.56
774.944	227.06
775.384	421.16
775.824	671.76
776.263	629.36
776.703	315.56
777.142	171.96
777.582	137.86
778.021	133.96
778.461	133.56
778.9	131.56
779.34	134.96
779.779	126.66
780.219	119.06
780.658	113.56
781.097	117.56
781.537	121.26
781.976	122.26
782.415	109.06
782.855	114.56
783.294	109.06
783.733	110.46
784.172	112.16
784.611	105.66
785.05	118.36
785.489	128.46
785.928	120.96
786.367	128.46
786.806	129.26
787.245	133.36
787.684	143.66
788.123	159.36
788.562	147.56
789.001	136.86
789.44	132.86
789.879	130.16
790.317	124.46
790.756	130.96
791.195	142.66
791.634	157.06
792.072	227.86
792.511	406.56
792.95	1113.26
793.388	2270.66
793.827	2010.96
794.265	713.66
794.704	306.36
795.142	196.36
795.581	166.16
796.019	145.96
796.458	138.56
796.896	135.66
797.334	146.16
797.773	167.56
798.211	244.46
798.649	490.56
799.087	1114.06
799.526	1737.66
799.964	2186.56
800.402	2124.86
800.84	820.66
801.278	327.86
801.716	199.76
802.154	165.66
802.592	158.66
803.03	152.26
803.468	152.26
803.906	153.66
804.344	168.16
804.782	154.56
805.22	147.06
805.658	146.66
806.096	164.86
806.533	170.06
806.971	190.86
807.409	237.46
807.847	346.26
808.284	748.26
808.722	2072.86
809.16	3535.96
809.597	3476.56
810.035	5916.76
810.472	6060.46
810.91	2262.56
811.347	874.66
811.785	437.46
812.222	283.06
812.66	207.76
813.097	179.66
813.535	156.76
813.972	140.46
814.409	121.36
814.846	115.96
815.284	121.36
815.721	113.96
816.158	112.26
816.595	119.66
817.032	163.36
817.47	192.06
817.907	134.46
818.344	109.46
818.781	103.26
819.218	105.46
819.655	136.16
820.092	203.36
820.529	220.26
820.966	179.26
821.403	135.26
821.839	114.16
822.276	107.36
822.713	131.96
823.15	143.26
823.587	125.96
824.023	167.86
824.46	345.66
824.897	997.26
825.333	1439.06
825.77	620.36
826.206	250.36
826.643	143.06
827.08	107.06
827.516	85.66
827.953	83.96
828.389	83.76
828.825	77.66
829.262	75.46
829.698	66.16
830.135	65.76
830.571	65.56
831.007	68.76
831.443	74.36
831.88	65.36
832.316	67.26
832.752	69.36
833.188	63.66
833.624	70.16
834.06	72.36
834.497	70.16
834.933	76.16
835.369	79.66
835.805	71.96
836.241	80.96
836.677	83.16
837.112	98.16
837.548	110.26
837.984	158.26
838.42	225.76
838.856	564.36
839.292	1650.26
839.727	2434.46
840.163	1149.26
840.599	1039.06
841.034	2204.56
841.47	2248.56
841.906	839.96
842.341	363.86
842.777	215.26
843.212	224.46
843.648	200.46
844.083	121.96
844.519	88.06
844.954	81.66
845.39	70.66
845.825	61.96
846.261	55.16
846.696	53.26
847.131	55.36
847.566	61.46
848.002	55.96
848.437	62.26
848.872	62.66
849.307	64.66
849.742	86.96
850.177	199.26
850.613	601.96
851.048	928.76
851.483	401.06
851.918	160.46
852.353	92.56
852.788	59.46
853.223	55.46
853.657	55.06
854.092	53.96
854.527	50.86
854.962	45.06
855.397	48.86
855.832	47.06
856.266	47.26
856.701	42.96
857.136	42.76
857.57	44.66
858.005	54.56
858.44	64.56
858.874	47.06
859.309	61.26
859.743	45.96
860.178	56.46
860.612	43.86
861.047	54.46
861.481	78.36
861.915	77.26
862.35	59.76
862.784	34.96
863.218	37.66
863.653	32.96
864.087	45.86
864.521	55.16
864.955	74.56
865.39	165.26
865.824	186.96
866.258	123.86
866.692	180.86
867.126	193.06
867.56	114.46
867.994	63.66
868.428	43.26
868.862	51.26
869.296	59.56
869.73	64.86
870.164	67.26
870.598	51.76
871.031	41.76
871.465	29.66
871.899	32.06
872.333	25.96
872.766	33.86
873.2	22.36
873.634	24.76
874.067	29.76
874.501	30.66
874.935	44.56
875.368	31.66
875.802	39.46
876.235	28.56
876.669	23.96
877.102	23.96
877.535	23.86
877.969	19.26
878.402	25.26
878.836	22.16
879.269	31.46
879.702	27.66
880.135	21.96
880.569	21.96
881.002	28.86
881.435	21.26
881.868	20.06
882.301	23.86
882.734	21.06
883.167	25.16
883.601	20.16
884.034	21.96
884.467	15.46
884.899	18.16
885.332	19.76
885.765	17.36
886.198	16.86
886.631	15.46
887.064	15.96
887.497	27.66
887.929	28.36
888.362	17.26
888.795	19.16
889.228	20.46
889.66	18.96
890.093	16.16
890.526	18.46
890.958	21.66
891.391	21.66
891.823	22.96
892.256	20.76
892.688	15.16
893.121	16.96
893.553	22.36
893.985	23.66
894.418	19.76
894.85	10.36
895.282	20.46
895.715	20.56
896.147	17.66
896.579	18.46
897.011	17.56
897.444	17.46
897.876	17.76
898.308	21.56
898.74	13.36
899.172	16.26
899.604	22.96
900.036	18.26
900.468	23.26
900.9	21.56
901.332	19.16
901.764	11.96
902.196	25.76
902.628	17.26
903.06	18.76
903.491	24.26
903.923	26.56
904.355	23.56
904.787	29.16
905.218	23.86
905.65	23.86
906.082	10.46
906.513	15.46
906.945	22.66
907.376	13.86
907.808	20.96
908.239	24.26
908.671	18.96
909.102	18.96
909.534	22.46
909.965	49.86
910.397	102.96
910.828	339.16
911.259	497.76
911.691	226.66
912.122	112.66
912.553	52.06
912.984	32.36
913.415	26.16
913.847	26.86
914.278	16.86
914.709	13.16
915.14	20.96
915.571	17.36
916.002	14.86
916.433	21.26
916.864	19.26
917.295	13.36
917.726	20.06
918.157	16.56
918.587	27.06
919.018	22.16
919.449	23.86
919.88	25.86
920.311	34.86
920.741	49.26
921.172	188.06
921.603	160.26
922.033	78.96
922.464	52.36
922.895	23.46
923.325	26.06
923.756	18.06
924.186	10.46
924.617	19.66
925.047	20.76
925.478	30.36
925.908	22.26
926.338	15.46
926.769	11.66
927.199	22.16
927.629	9.66
928.06	12.96
928.49	12.66
928.92	16.06
929.35	11.16
929.78	14.06
930.21	9.16
930.641	12.56
931.071	7.86
931.501	3.86
931.931	7.06
932.361	7.86
932.791	4.26
933.221	1.86
933.651	4.06
934.08	20.16
934.51	26.46
934.94	7.56
935.37	15.16
935.8	16.36
936.229	9.06
936.659	10.16
937.089	-0.04
937.519	13.76
937.948	25.96
938.378	14.56
938.807	6.46
939.237	4.76
939.666	11.56
940.096	-5.54
940.525	2.86
940.955	2.36
941.384	1.26
941.814	-2.94
942.243	-3.34
942.672	3.06
943.102	2.46
943.531	2.56
943.96	-0.34
944.39	6.56
944.819	-2.04
945.248	2.96
945.677	2.26
946.106	3.66
946.535	4.56
946.964	-1.24
947.393	-1.24
947.822	0.06
948.251	-4.54
948.68	8.96
949.109	6.56
949.538	4.26
949.967	-0.74
950.396	7.76
950.825	2.66
951.254	4.16
951.682	-3.84
952.111	3.96
952.54	2.46
952.969	-10.84
953.397	-1.94
953.826	0.66
954.254	-2.24
954.683	4.16
955.112	-0.84
955.54	0.96
955.969	4.56
956.397	4.36
956.826	-1.94
957.254	4.46
957.682	2.16
958.111	6.76
958.539	0.56
958.967	-1.04
959.396	2.96
959.824	-1.24
960.252	-0.34
960.68	-3.04
961.109	-2.64
961.537	-4.34
961.965	3.86
962.393	-1.14
962.821	0.86
963.249	2.76
963.677	13.06
964.105	10.16
964.533	46.46
964.961	43.96
965.389	18.56
965.817	9.76
966.245	4.46
966.672	0.86
967.1	-9.64
967.528	-1.84
967.956	-3.24
968.383	1.56
968.811	-1.94
969.239	-4.24
969.666	-7.44
970.094	-0.54
970.522	-0.04
970.949	0.56
971.377	-0.34
971.804	-0.04
972.232	-2.94
972.659	-6.04
973.087	0.56
973.514	-5.54
973.941	-9.04
974.369	2.66
974.796	4.26
975.223	1.76
975.651	-2.64
976.078	-1.64
976.505	-1.54
976.932	6.26
977.359	17.06
977.786	15.16
978.214	3.06
978.641	-3.84
979.068	-1.84
979.495	-6.24
979.922	-1.64
980.349	-0.44
980.776	2.36
981.202	-0.74
981.629	1.56
982.056	3.66
982.483	1.06
982.91	5.76
983.337	-5.74
983.763	3.46
984.19	-5.24
984.617	0.76
985.043	-4.14
985.47	0.76
985.897	0.16
986.323	-0.84
986.75	6.76
987.176	-0.94
987.603	-3.64
988.029	1.96
988.456	-4.84
988.882	6.46
989.308	-11.04
989.735	-5.34
990.161	0.06
990.587	-2.84
991.014	-0.44
991.44	8.66
991.866	1.26
992.292	-9.24
992.719	1.36
993.145	-2.14
993.571	-12.14
993.997	-3.34
994.423	-0.14
994.849	-3.54
995.275	1.36
995.701	1.76
996.127	-7.94
996.553	4.86
996.979	-6.14
997.405	1.26
997.83	-3.64
998.256	-7.34
998.682	-11.24
999.108	-3.94
999.534	1.06
999.959	-3.64
1000.385	2.66
1000.811	-4.14
1001.236	-7.74
1001.662	-5.34
1002.087	-7.04
1002.513	0.06
1002.938	-2.24
1003.364	-3.44
1003.789	1.46
1004.215	5.06
1004.64	-2.24
1005.066	2.56
1005.491	6.36
1005.916	5.66
1006.342	-1.24
1006.767	-11.04
1007.192	3.26
1007.617	-5.34
1008.042	-9.34
1008.468	-7.54
1008.893	-2.44
1009.318	-4.54
1009.743	-7.64
1010.168	2.76
1010.593	3.26
1011.018	-1.24
1011.443	0.56
1011.868	0.96
1012.293	-6.64
1012.718	-5.44
1013.143	-0.64
1013.567	-2.14
1013.992	-5.34
1014.417	-9.04
1014.842	2.66
1015.267	-7.14
1015.691	0.16
1016.116	3.16
1016.541	0.86
1016.965	3.16
1017.39	0.86
1017.814	0.46
1018.239	-0.54
1018.663	-7.14
1019.088	-12.14
1019.512	-2.14
1019.937	-5.74
1020.361	-8.34
1020.785	-9.34
1021.21	0.96
1021.634	-2.54
1022.058	-2.54
1022.483	4.26
1022.907	-1.24
1023.331	-6.24
1023.755	-7.04
1024.179	-4.84
1024.604	-6.04
1025.028	-2.24
1025.452	-7.24
1025.876	2.46
1026.3	-0.04
1026.724	-10.24
1027.148	-3.54
1027.572	-9.34
1027.996	-4.94
1028.42	-0.34
1028.843	-3.54
1029.267	-8.84
1029.691	0.96
1030.115	0.06
1030.539	-1.84
1030.962	-5.64
1031.386	-13.84
1031.81	-2.74
1032.233	-4.14
1032.657	-2.54
1033.08	-0.74
1033.504	-4.64
1033.927	-10.44
1034.351	-2.84
1034.774	-8.14
1035.198	0.76
1035.621	-4.54
1036.045	-6.24
1036.468	-3.44
1036.891	-6.84
1037.315	-10.04
1037.738	-6.34
1038.161	-0.84
1038.584	-7.94
1039.008	-11.14
1039.431	-2.44
1039.854	-10.74
1040.277	-5.34
1040.7	-9.04
1041.123	-2.04
1041.546	-4.34
1041.969	-2.14
1042.392	-4.34
1042.815	-0.74
1043.238	2.36
1043.661	-6.74
1044.084	-3.74
1044.507	-5.74
1044.93	1.16
1045.352	-5.94
1045.775	-1.94
1046.198	-2.54
1046.621	-0.84
1047.043	-1.14
1047.466	0.36
1047.889	-1.24
1048.311	-9.84
1048.734	-1.34
1049.156	-2.34
1049.579	-2.04
1050.001	-5.64
1050.424	-7.44
1050.846	-5.14
1051.269	-6.64
1051.691	-10.84
1052.113	-8.44
1052.536	-0.74
1052.958	1.66
1053.38	-2.24
1053.802	-11.54
1054.225	0.36
1054.647	-12.64
1055.069	-8.84
1055.491	2.56
1055.913	-10.64
1056.335	-1.24
1056.757	-7.34
1057.179	-7.74
1057.601	-4.64
1058.023	-1.54
1058.445	-1.54
1058.867	-1.54
1059.289	1.46
1059.711	-6.94
1060.133	-0.84
1060.555	-7.24
1060.976	-7.64
1061.398	-5.34
1061.82	-1.04
1062.241	-8.34
1062.663	-8.04
1063.085	-5.64
1063.506	-2.54
1063.928	-8.34
1064.35	2.26
1064.771	-6.84
1065.193	2.96
1065.614	-11.74
1066.035	-1.34
1066.457	-4.54
1066.878	-2.04
1067.3	-3.24
1067.721	-0.34
1068.142	-5.14
1068.564	-5.54
1068.985	-3.84
1069.406	-7.14
1069.827	-6.04
1070.248	0.46
1070.67	1.16
1071.091	-6.24
1071.512	-0.04
1071.933	-10.24
1072.354	-9.34
1072.775	-3.34
1073.196	-8.14
1073.617	-1.44
1074.038	-9.04
1074.459	-1.64
1074.88	-7.24
1075.3	1.96
1075.721	-7.24
1076.142	-2.64
1076.563	-2.54
1076.983	-11.84
1077.404	-5.44
1077.825	-10.34
1078.246	-0.34
1078.666	-15.94
1079.087	-6.34
1079.507	-9.84
1079.928	1.66
1080.348	-5.14
1080.769	-6.14
1081.189	1.86
1081.61	-4.64
1082.03	-9.14
1082.451	-7.94
1082.871	-0.34
1083.291	-5.54
1083.711	-11.94
1084.132	-4.24
1084.552	-2.74
1084.972	0.06
1085.392	-12.04
1085.813	-5.94
1086.233	-9.24
1086.653	-8.44
1087.073	-3.64
1087.493	-6.64
1087.913	-7.64
1088.333	-9.54
1088.753	-3.94
1089.173	-1.54
1089.593	-6.34
1090.013	0.96
1090.433	-2.64
1090.852	-3.84
1091.272	-8.04
1091.692	-3.74
1092.112	-4.04
1092.531	-10.54
1092.951	-12.34
1093.371	0.06
1093.79	4.86
1094.21	-5.94
1094.63	-7.24
1095.049	-4.34
1095.469	-3.44
1095.888	-1.84
1096.308	7.86
1096.727	2.36
1097.146	-4.64
1097.566	-1.94
1097.985	-6.34
1098.405	-1.14
1098.824	-5.94
1099.243	-5.14
1099.662	-5.14
1100.082	-0.14
1100.501	0.56
1100.92	-8.94
1101.339	-8.64
1101.758	-4.54
