Data from 20171114-ORNL-Ar_H_NY_Subt18_08-03-38-040.txt Node
Date: Tue Nov 14 08:03:38 EST 2017
User: Ender
Spectrometer: HR+D1039
Trigger mode: 0
Integration Time (sec): 2.730000E-2
Scans to average: 10
Electric dark correction enabled: true
Nonlinearity correction enabled: false
Boxcar width: 0
XAxis mode: Wavelengths
Number of Pixels in Spectrum: 2048
>>>>>Begin Spectral Data<<<<<
187.836	-0.45
188.309	-0.45
188.782	-0.45
189.255	2.85
189.728	-3.85
190.201	7.75
190.674	4.05
191.147	7.05
191.619	-5.45
192.092	1.05
192.565	5.15
193.038	-3.95
193.511	3.65
193.984	-2.05
194.456	-5.05
194.929	-7.25
195.402	2.05
195.874	-5.55
196.347	0.65
196.82	-0.55
197.292	4.55
197.765	-0.45
198.237	-6.25
198.71	6.75
199.182	1.55
199.655	8.45
200.127	4.45
200.6	0.65
201.072	-3.75
201.544	-5.45
202.017	-1.15
202.489	3.05
202.961	-1.05
203.433	-3.15
203.906	-3.35
204.378	-3.65
204.85	1.55
205.322	-4.85
205.794	1.65
206.266	-1.95
206.739	-3.95
207.211	6.25
207.683	-5.25
208.155	-0.25
208.627	-0.35
209.099	1.95
209.57	-5.05
210.042	-7.75
210.514	5.05
210.986	1.85
211.458	-8.35
211.93	-3.45
212.402	6.85
212.873	-6.45
213.345	-9.85
213.817	-14.25
214.288	-3.75
214.76	-8.65
215.232	2.35
215.703	1.25
216.175	-2.75
216.646	-7.15
217.118	-8.75
217.589	0.45
218.061	-3.55
218.532	-0.55
219.004	-2.35
219.475	1.45
219.946	0.35
220.418	-6.45
220.889	8.05
221.36	0.95
221.832	-0.75
222.303	-7.05
222.774	4.35
223.245	-5.45
223.717	-5.55
224.188	-5.65
224.659	-7.85
225.13	-2.65
225.601	-2.95
226.072	8.05
226.543	2.55
227.014	2.65
227.485	-6.15
227.956	-5.75
228.427	-0.75
228.898	-0.95
229.369	11.25
229.839	-6.75
230.31	-2.45
230.781	1.25
231.252	-3.55
231.722	-1.85
232.193	-2.95
232.664	-4.05
233.135	-2.15
233.605	-0.35
234.076	-8.45
234.546	6.75
235.017	7.15
235.487	5.65
235.958	-0.55
236.428	-4.95
236.899	0.25
237.369	-1.65
237.84	-0.85
238.31	0.55
238.78	0.05
239.251	-5.75
239.721	0.15
240.191	-4.25
240.662	-5.85
241.132	-0.15
241.602	-5.55
242.072	-4.85
242.542	3.65
243.013	3.25
243.483	2.45
243.953	7.55
244.423	-0.45
244.893	-4.45
245.363	1.35
245.833	-2.55
246.303	-7.75
246.773	4.15
247.243	5.65
247.712	0.25
248.182	8.75
248.652	4.35
249.122	-5.15
249.592	-6.55
250.061	5.65
250.531	10.45
251.001	1.35
251.471	6.25
251.94	6.05
252.41	3.05
252.879	-5.25
253.349	3.65
253.818	8.75
254.288	5.55
254.757	-3.05
255.227	-0.15
255.696	4.85
256.166	0.95
256.635	6.25
257.105	2.25
257.574	-1.85
258.043	3.45
258.513	-2.65
258.982	2.65
259.451	0.05
259.92	1.25
260.389	1.75
260.859	17.55
261.328	0.55
261.797	7.15
262.266	5.55
262.735	10.15
263.204	7.85
263.673	-2.15
264.142	-0.05
264.611	-9.65
265.08	1.05
265.549	-2.85
266.018	7.85
266.487	-7.35
266.955	-2.95
267.424	0.95
267.893	5.05
268.362	-0.15
268.83	-0.15
269.299	6.05
269.768	1.55
270.236	-1.45
270.705	-5.05
271.174	0.85
271.642	-2.55
272.111	-2.55
272.579	3.35
273.048	-0.05
273.516	4.15
273.985	7.35
274.453	4.95
274.922	9.55
275.39	5.55
275.858	-2.35
276.327	2.95
276.795	9.35
277.263	-2.35
277.731	5.95
278.2	6.55
278.668	6.05
279.136	6.25
279.604	5.95
280.072	-2.35
280.54	2.05
281.008	6.05
281.477	8.95
281.945	5.45
282.413	7.95
282.881	9.85
283.348	0.55
283.816	8.85
284.284	6.35
284.752	11.75
285.22	9.85
285.688	12.75
286.156	8.95
286.623	11.85
287.091	4.95
287.559	3.85
288.026	9.95
288.494	6.65
288.962	3.05
289.429	2.75
289.897	14.85
290.364	4.35
290.832	9.95
291.3	8.15
291.767	8.85
292.234	16.35
292.702	6.75
293.169	13.15
293.637	14.85
294.104	11.85
294.571	3.45
295.039	10.05
295.506	11.35
295.973	13.35
296.44	14.75
296.908	10.15
297.375	13.35
297.842	14.85
298.309	8.45
298.776	2.85
299.243	10.15
299.71	7.35
300.177	15.95
300.644	17.45
301.111	15.15
301.578	15.65
302.045	9.85
302.512	18.35
302.979	17.35
303.446	16.85
303.913	12.05
304.379	11.05
304.846	20.25
305.313	11.75
305.78	14.95
306.246	15.15
306.713	22.05
307.18	12.75
307.646	15.35
308.113	21.35
308.579	15.45
309.046	21.75
309.512	23.65
309.979	11.85
310.445	21.25
310.912	21.85
311.378	26.15
311.845	26.65
312.311	24.95
312.777	25.75
313.244	23.45
313.71	29.95
314.176	24.15
314.642	24.45
315.109	20.55
315.575	25.65
316.041	27.25
316.507	21.85
316.973	22.45
317.439	25.15
317.905	28.45
318.371	30.15
318.837	25.95
319.303	26.05
319.769	20.85
320.235	25.45
320.701	24.55
321.167	27.55
321.633	24.55
322.099	33.75
322.564	35.75
323.03	28.65
323.496	27.05
323.962	29.45
324.427	26.55
324.893	33.15
325.359	26.55
325.824	34.85
326.29	34.55
326.755	36.95
327.221	33.05
327.686	30.35
328.152	38.65
328.617	35.05
329.083	37.45
329.548	44.15
330.014	35.65
330.479	34.05
330.944	31.95
331.41	34.25
331.875	41.15
332.34	34.05
332.805	37.15
333.271	35.55
333.736	34.85
334.201	44.45
334.666	45.05
335.131	45.95
335.596	42.45
336.061	42.05
336.526	29.95
336.991	40.75
337.456	45.55
337.921	47.45
338.386	39.55
338.851	44.55
339.316	38.75
339.781	44.15
340.246	42.55
340.711	40.75
341.175	50.05
341.64	39.95
342.105	45.35
342.569	48.65
343.034	50.05
343.499	50.55
343.963	47.35
344.428	61.95
344.893	56.75
345.357	55.95
345.822	53.55
346.286	69.05
346.751	61.55
347.215	61.95
347.679	62.75
348.144	76.35
348.608	67.45
349.073	54.85
349.537	72.85
350.001	68.05
350.465	74.85
350.93	64.85
351.394	74.45
351.858	61.85
352.322	80.55
352.786	73.35
353.25	85.85
353.715	97.65
354.179	79.85
354.643	102.25
355.107	99.45
355.571	92.85
356.035	85.75
356.498	95.55
356.962	100.25
357.426	103.95
357.89	95.85
358.354	80.65
358.818	81.55
359.281	76.65
359.745	74.95
360.209	74.15
360.673	68.65
361.136	75.55
361.6	81.25
362.064	79.85
362.527	82.35
362.991	89.05
363.454	76.65
363.918	77.25
364.381	74.35
364.845	83.85
365.308	88.75
365.772	78.75
366.235	85.55
366.698	82.75
367.162	85.85
367.625	85.35
368.088	90.15
368.552	87.95
369.015	90.75
369.478	93.45
369.941	96.05
370.404	94.05
370.867	95.45
371.331	106.35
371.794	99.25
372.257	99.55
372.72	108.95
373.183	102.15
373.646	93.75
374.109	98.55
374.572	103.35
375.035	95.95
375.497	104.75
375.96	102.65
376.423	106.65
376.886	104.55
377.349	104.35
377.811	103.75
378.274	103.95
378.737	112.45
379.199	113.05
379.662	110.05
380.125	112.95
380.587	109.45
381.05	108.95
381.512	118.35
381.975	123.85
382.437	128.05
382.9	122.25
383.362	126.45
383.825	137.75
384.287	135.95
384.75	123.35
385.212	129.55
385.674	136.65
386.136	130.25
386.599	123.65
387.061	132.55
387.523	130.55
387.985	128.95
388.447	142.95
388.91	134.25
389.372	134.15
389.834	129.25
390.296	126.95
390.758	139.55
391.22	138.45
391.682	140.65
392.144	146.25
392.606	142.55
393.068	144.15
393.529	157.15
393.991	151.35
394.453	137.85
394.915	146.25
395.377	143.55
395.838	139.55
396.3	146.45
396.762	151.25
397.224	136.75
397.685	137.05
398.147	143.25
398.608	146.85
399.07	143.35
399.531	147.95
399.993	153.35
400.454	168.15
400.916	155.55
401.377	151.35
401.839	155.15
402.3	161.15
402.762	181.55
403.223	192.65
403.684	182.85
404.145	178.55
404.607	169.35
405.068	168.95
405.529	177.35
405.99	187.15
406.451	178.65
406.913	180.95
407.374	179.35
407.835	170.85
408.296	182.95
408.757	186.85
409.218	192.35
409.679	190.95
410.14	191.85
410.601	188.05
411.062	194.75
411.522	197.35
411.983	192.05
412.444	192.55
412.905	204.45
413.366	209.85
413.826	219.25
414.287	244.55
414.748	300.85
415.208	290.05
415.669	249.85
416.13	236.15
416.59	228.15
417.051	245.35
417.511	253.65
417.972	278.45
418.432	293.55
418.893	341.25
419.353	290.85
419.814	226.65
420.274	208.75
420.734	207.45
421.195	220.45
421.655	207.15
422.115	207.55
422.576	221.65
423.036	219.45
423.496	236.45
423.956	252.45
424.416	257.35
424.876	297.05
425.336	284.35
425.797	282.85
426.257	278.35
426.717	255.95
427.177	236.25
427.637	232.55
428.097	235.65
428.556	241.55
429.016	269.55
429.476	256.55
429.936	268.95
430.396	270.75
430.856	271.75
431.315	289.45
431.775	323.55
432.235	358.35
432.694	320.15
433.154	320.55
433.614	352.15
434.073	304.15
434.533	265.95
434.993	262.75
435.452	277.55
435.912	276.05
436.371	269.35
436.83	274.65
437.29	257.45
437.749	251.55
438.209	256.75
438.668	275.35
439.127	288.45
439.587	256.35
440.046	247.35
440.505	266.15
440.964	278.05
441.424	314.95
441.883	307.25
442.342	270.85
442.801	250.65
443.26	248.65
443.719	251.45
444.178	242.65
444.637	240.95
445.096	244.45
445.555	249.55
446.014	240.95
446.473	257.55
446.932	260.55
447.391	259.05
447.849	256.25
448.308	247.75
448.767	248.75
449.226	254.35
449.685	258.45
450.143	272.15
450.602	265.15
451.061	253.35
451.519	264.95
451.978	257.05
452.436	253.85
452.895	256.95
453.353	270.05
453.812	262.05
454.27	271.75
454.729	262.55
455.187	260.75
455.646	263.45
456.104	265.25
456.562	282.35
457.021	282.45
457.479	274.45
457.937	286.75
458.395	276.65
458.854	270.15
459.312	276.85
459.77	284.85
460.228	274.65
460.686	267.65
461.144	274.55
461.602	275.15
462.06	272.25
462.518	273.15
462.976	276.75
463.434	282.05
463.892	280.35
464.35	293.75
464.808	304.55
465.266	291.65
465.724	296.65
466.181	295.15
466.639	292.45
467.097	312.15
467.555	310.25
468.012	311.65
468.47	321.75
468.928	336.65
469.385	354.85
469.843	353.65
470.3	359.85
470.758	369.95
471.215	379.45
471.673	395.25
472.13	402.85
472.588	411.45
473.045	387.65
473.503	389.55
473.96	408.65
474.417	410.55
474.875	427.45
475.332	456.55
475.789	445.05
476.246	454.85
476.704	471.55
477.161	473.85
477.618	478.65
478.075	503.05
478.532	540.15
478.989	580.05
479.446	653.05
479.903	614.65
480.36	613.85
480.817	624.45
481.274	676.35
481.731	726.05
482.188	760.75
482.645	827.95
483.102	874.05
483.558	926.95
484.015	952.75
484.472	943.85
484.929	931.35
485.385	913.35
485.842	909.65
486.299	904.15
486.755	903.65
487.212	795.75
487.668	709.45
488.125	671.35
488.582	654.55
489.038	635.65
489.494	619.35
489.951	601.05
490.407	605.45
490.864	589.35
491.32	590.85
491.776	597.65
492.233	600.85
492.689	578.65
493.145	589.35
493.602	581.75
494.058	590.05
494.514	588.45
494.97	606.75
495.426	609.05
495.882	594.15
496.338	586.65
496.794	583.35
497.251	579.55
497.707	601.45
498.163	587.45
498.618	593.85
499.074	600.05
499.53	623.65
499.986	629.05
500.442	606.85
500.898	603.55
501.354	598.65
501.809	609.25
502.265	606.45
502.721	614.95
503.177	615.15
503.632	631.45
504.088	616.85
504.543	628.25
504.999	644.65
505.455	627.55
505.91	616.65
506.366	617.45
506.821	617.35
507.277	603.45
507.732	619.55
508.187	614.85
508.643	620.55
509.098	622.45
509.553	632.75
510.009	642.25
510.464	641.85
510.919	659.45
511.375	661.45
511.83	681.75
512.285	679.35
512.74	706.75
513.195	718.45
513.65	715.25
514.105	720.05
514.56	719.15
515.015	728.15
515.47	740.35
515.925	734.35
516.38	738.15
516.835	736.95
517.29	739.45
517.745	737.45
518.2	722.75
518.655	707.55
519.109	704.65
519.564	693.55
520.019	682.85
520.474	675.95
520.928	680.35
521.383	675.75
521.838	654.15
522.292	655.15
522.747	660.55
523.201	663.75
523.656	657.75
524.11	657.85
524.565	655.45
525.019	640.85
525.474	649.65
525.928	646.75
526.382	647.55
526.837	638.55
527.291	648.45
527.745	640.05
528.2	642.95
528.654	629.65
529.108	634.65
529.562	624.15
530.016	633.35
530.47	636.65
530.925	629.05
531.379	630.45
531.833	643.55
532.287	643.45
532.741	629.85
533.195	629.85
533.649	632.85
534.103	636.05
534.556	620.35
535.01	630.95
535.464	633.95
535.918	633.95
536.372	646.15
536.826	639.05
537.279	625.15
537.733	630.95
538.187	635.25
538.64	624.35
539.094	644.35
539.548	650.45
540.001	629.15
540.455	642.95
540.908	647.85
541.362	659.65
541.815	662.85
542.269	676.45
542.722	673.85
543.175	674.25
543.629	683.65
544.082	686.85
544.536	691.95
544.989	690.95
545.442	697.15
545.895	693.75
546.349	702.75
546.802	700.15
547.255	705.65
547.708	706.35
548.161	711.05
548.614	717.65
549.067	727.75
549.52	713.25
549.973	715.75
550.426	700.75
550.879	696.55
551.332	693.55
551.785	703.75
552.238	700.95
552.691	710.35
553.144	717.55
553.596	732.85
554.049	728.95
554.502	759.85
554.955	777.25
555.407	770.75
555.86	765.95
556.313	754.05
556.765	747.75
557.218	744.65
557.67	738.65
558.123	737.65
558.576	735.55
559.028	739.35
559.48	747.95
559.933	742.45
560.385	721.95
560.838	698.85
561.29	663.65
561.742	666.85
562.195	655.25
562.647	655.75
563.099	659.55
563.551	652.85
564.004	662.65
564.456	649.15
564.908	637.55
565.36	621.45
565.812	606.75
566.264	601.95
566.716	600.95
567.168	598.35
567.62	596.55
568.072	580.65
568.524	568.05
568.976	577.65
569.428	558.95
569.88	556.65
570.332	563.75
570.784	577.05
571.235	574.85
571.687	574.45
572.139	571.25
572.59	579.05
573.042	579.45
573.494	576.75
573.945	584.65
574.397	547.35
574.849	561.05
575.3	567.75
575.752	548.35
576.203	554.25
576.655	565.35
577.106	536.85
577.557	531.85
578.009	535.75
578.46	546.75
578.912	533.85
579.363	526.85
579.814	540.45
580.265	522.05
580.717	534.95
581.168	535.15
581.619	538.95
582.07	545.05
582.521	539.35
582.972	534.15
583.423	540.65
583.875	540.25
584.326	536.25
584.777	552.45
585.227	571.75
585.678	570.05
586.129	587.95
586.58	598.95
587.031	620.65
587.482	640.65
587.933	665.75
588.384	641.85
588.834	624.55
589.285	617.85
589.736	617.05
590.186	619.55
590.637	610.45
591.088	595.45
591.538	587.85
591.989	582.65
592.439	567.95
592.89	562.25
593.34	556.45
593.791	551.75
594.241	545.55
594.692	540.25
595.142	542.65
595.593	535.45
596.043	549.45
596.493	550.85
596.943	540.95
597.394	562.65
597.844	548.45
598.294	569.45
598.744	592.25
599.195	604.55
599.645	635.95
600.095	662.05
600.545	692.65
600.995	734.65
601.445	780.05
601.895	837.05
602.345	873.45
602.795	856.35
603.245	817.55
603.695	795.95
604.145	750.35
604.594	713.15
605.044	666.05
605.494	619.15
605.944	581.35
606.393	564.15
606.843	554.75
607.293	549.25
607.743	551.95
608.192	556.05
608.642	564.45
609.091	573.35
609.541	573.85
609.99	563.95
610.44	568.45
610.889	536.15
611.339	522.85
611.788	500.05
612.238	518.15
612.687	527.25
613.136	524.45
613.586	541.85
614.035	525.55
614.484	543.45
614.933	528.45
615.383	546.05
615.832	531.65
616.281	525.65
616.73	504.25
617.179	499.35
617.628	477.35
618.077	473.85
618.526	468.05
618.975	464.35
619.424	462.15
619.873	455.15
620.322	457.25
620.771	449.55
621.22	441.55
621.669	437.95
622.118	429.35
622.567	425.15
623.015	419.65
623.464	413.65
623.913	413.05
624.361	408.35
624.81	402.95
625.259	410.85
625.707	411.45
626.156	408.25
626.604	414.25
627.053	402.25
627.501	409.55
627.95	414.15
628.398	420.65
628.847	415.05
629.295	420.75
629.744	416.45
630.192	410.85
630.64	414.75
631.089	396.55
631.537	389.05
631.985	378.75
632.433	384.15
632.881	372.65
633.33	380.95
633.778	370.05
634.226	375.95
634.674	382.15
635.122	382.85
635.57	390.05
636.018	399.85
636.466	402.05
636.914	385.45
637.362	402.45
637.81	406.25
638.258	410.55
638.705	408.85
639.153	438.55
639.601	429.85
640.049	443.95
640.497	475.75
640.944	485.85
641.392	456.45
641.84	427.25
642.287	408.45
642.735	381.35
643.182	392.05
643.63	385.95
644.078	372.45
644.525	385.55
644.973	387.65
645.42	385.25
645.867	392.85
646.315	405.45
646.762	414.25
647.21	432.15
647.657	424.25
648.104	444.45
648.551	436.25
648.999	448.95
649.446	466.15
649.893	481.85
650.34	530.05
650.787	589.55
651.234	693.35
651.682	832.85
652.129	1057.35
652.576	1395.15
653.023	1969.95
653.47	2622.95
653.917	3252.65
654.363	3834.05
654.81	4306.85
655.257	4105.85
655.704	2802.35
656.151	1744.95
656.598	1199.75
657.044	913.55
657.491	745.45
657.938	627.05
658.385	560.75
658.831	515.05
659.278	490.95
659.724	437.55
660.171	431.85
660.618	395.25
661.064	387.65
661.511	385.35
661.957	370.75
662.404	376.85
662.85	383.35
663.296	385.35
663.743	352.05
664.189	349.75
664.635	349.35
665.082	345.85
665.528	339.65
665.974	343.05
666.42	336.35
666.867	327.85
667.313	320.15
667.759	303.75
668.205	301.15
668.651	298.65
669.097	297.65
669.543	298.55
669.989	300.65
670.435	313.85
670.881	303.05
671.327	310.25
671.773	320.25
672.219	334.55
672.665	382.35
673.11	408.85
673.556	444.85
674.002	475.95
674.448	461.35
674.893	387.85
675.339	334.95
675.785	309.05
676.23	297.95
676.676	274.05
677.122	262.15
677.567	255.65
678.013	262.15
678.458	258.15
678.904	246.15
679.349	242.95
679.794	240.35
680.24	245.15
680.685	239.95
681.131	241.45
681.576	245.35
682.021	250.15
682.466	242.45
682.912	236.95
683.357	244.15
683.802	258.95
684.247	289.45
684.692	313.05
685.137	348.75
685.583	377.35
686.028	395.05
686.473	366.65
686.918	318.75
687.363	287.65
687.807	279.45
688.252	261.15
688.697	244.95
689.142	236.05
689.587	226.65
690.032	226.65
690.477	238.75
690.921	240.25
691.366	267.95
691.811	275.25
692.255	306.05
692.7	329.35
693.145	346.45
693.589	464.75
694.034	761.55
694.478	1070.35
694.923	1279.15
695.367	1694.35
695.812	896.05
696.256	364.85
696.701	255.45
697.145	232.45
697.59	228.65
698.034	230.05
698.478	232.75
698.922	224.75
699.367	227.15
699.811	230.55
700.255	244.15
700.699	259.95
701.143	285.95
701.588	327.55
702.032	369.25
702.476	367.05
702.92	346.15
703.364	352.15
703.808	436.15
704.252	705.85
704.696	1014.05
705.14	1215.05
705.584	1575.55
706.027	786.65
706.471	372.15
706.915	277.55
707.359	252.45
707.803	221.05
708.246	222.15
708.69	217.05
709.134	220.55
709.577	214.15
710.021	226.25
710.465	208.35
710.908	212.55
711.352	204.35
711.795	219.75
712.239	249.05
712.682	264.65
713.126	297.05
713.569	324.75
714.012	253.75
714.456	217.55
714.899	199.75
715.342	192.85
715.786	189.95
716.229	179.55
716.672	174.75
717.115	178.65
717.558	170.45
718.002	177.25
718.445	175.95
718.888	201.45
719.331	199.25
719.774	212.95
720.217	212.75
720.66	199.25
721.103	188.65
721.546	176.35
721.989	178.05
722.432	161.05
722.874	167.45
723.317	163.45
723.76	159.35
724.203	175.55
724.645	203.05
725.088	300.95
725.531	392.95
725.974	472.35
726.416	400.25
726.859	218.15
727.301	167.05
727.744	164.45
728.187	164.05
728.629	161.45
729.071	172.95
729.514	175.95
729.956	182.55
730.399	192.25
730.841	199.55
731.283	191.05
731.726	188.45
732.168	186.05
732.61	178.25
733.053	194.05
733.495	212.85
733.937	243.75
734.379	279.45
734.821	299.05
735.263	365.65
735.705	572.05
736.148	1055.55
736.59	1785.45
737.032	2265.05
737.474	1862.45
737.916	597.55
738.357	307.45
738.799	235.85
739.241	205.95
739.683	198.15
740.125	198.65
740.567	208.55
741.008	226.75
741.45	220.85
741.892	228.45
742.334	249.95
742.775	274.65
743.217	258.45
743.658	201.05
744.1	183.85
744.542	185.45
744.983	246.85
745.425	279.55
745.866	269.15
746.307	202.05
746.749	200.35
747.19	227.15
747.632	306.75
748.073	574.55
748.514	1260.55
748.956	2044.35
749.397	2548.45
749.838	2133.75
750.279	2215.25
750.72	1134.95
751.162	397.95
751.603	227.25
752.044	183.55
752.485	153.35
752.926	144.15
753.367	139.15
753.808	134.95
754.249	136.45
754.69	128.75
755.131	125.45
755.572	133.25
756.013	132.15
756.453	134.85
756.894	132.55
757.335	130.35
757.776	136.95
758.216	133.05
758.657	142.95
759.098	136.75
759.538	154.05
759.979	179.65
760.42	256.35
760.86	469.45
761.301	1222.05
761.741	3074.25
762.182	4853.65
762.622	3484.25
763.063	977.45
763.503	393.85
763.943	228.05
764.384	191.65
764.824	167.55
765.264	161.15
765.705	140.75
766.145	127.75
766.585	125.65
767.025	116.45
767.465	107.95
767.906	123.85
768.346	130.95
768.786	129.45
769.226	145.05
769.666	205.35
770.106	409.85
770.546	1032.15
770.986	1910.45
771.426	1777.55
771.866	588.55
772.306	235.55
772.745	143.75
773.185	118.65
773.625	112.05
774.065	105.85
774.505	124.85
774.944	144.25
775.384	273.25
775.824	503.05
776.263	505.55
776.703	233.65
777.142	116.75
777.582	94.05
778.021	83.95
778.461	90.05
778.9	86.85
779.34	91.95
779.779	76.25
780.219	73.45
780.658	69.35
781.097	78.55
781.537	75.55
781.976	77.35
782.415	76.65
782.855	71.35
783.294	68.65
783.733	62.05
784.172	75.95
784.611	66.65
785.05	75.85
785.489	75.35
785.928	82.15
786.367	85.05
786.806	76.75
787.245	82.05
787.684	85.85
788.123	106.45
788.562	88.95
789.001	89.85
789.44	85.45
789.879	87.85
790.317	84.35
790.756	90.75
791.195	83.15
791.634	95.95
792.072	140.85
792.511	235.65
792.95	656.15
793.388	1521.35
793.827	1463.35
794.265	491.95
794.704	202.35
795.142	133.15
795.581	109.15
796.019	103.15
796.458	94.65
796.896	87.85
797.334	93.15
797.773	117.15
798.211	145.15
798.649	288.35
799.087	704.15
799.526	1143.55
799.964	1431.55
800.402	1524.15
800.84	570.05
801.278	218.55
801.716	128.45
802.154	109.75
802.592	102.75
803.03	100.55
803.468	87.05
803.906	98.35
804.344	102.05
804.782	95.85
805.22	94.95
805.658	89.15
806.096	109.45
806.533	114.05
806.971	122.95
807.409	150.05
807.847	217.35
808.284	452.15
808.722	1281.45
809.16	2409.55
809.597	2216.65
810.035	3901.85
810.472	4493.15
810.91	1616.25
811.347	592.85
811.785	293.45
812.222	193.05
812.66	144.55
813.097	119.85
813.535	100.35
813.972	102.55
814.409	90.05
814.846	78.65
815.284	77.85
815.721	69.45
816.158	72.95
816.595	77.65
817.032	119.15
817.47	153.65
817.907	108.75
818.344	77.55
818.781	71.65
819.218	64.75
819.655	88.45
820.092	152.35
820.529	187.35
820.966	145.15
821.403	105.85
821.839	74.55
822.276	68.85
822.713	90.85
823.15	104.15
823.587	82.35
824.023	98.15
824.46	200.25
824.897	603.05
825.333	1014.45
825.77	445.25
826.206	175.35
826.643	101.25
827.08	70.55
827.516	57.45
827.953	58.55
828.389	62.95
828.825	50.65
829.262	46.95
829.698	42.95
830.135	49.15
830.571	37.05
831.007	42.75
831.443	42.85
831.88	43.35
832.316	43.95
832.752	46.65
833.188	47.65
833.624	45.85
834.06	50.55
834.497	46.45
834.933	53.95
835.369	55.85
835.805	52.65
836.241	55.05
836.677	58.35
837.112	60.35
837.548	67.55
837.984	98.05
838.42	134.95
838.856	338.25
839.292	1066.85
839.727	1732.85
840.163	806.25
840.599	647.65
841.034	1464.35
841.47	1630.45
841.906	590.15
842.341	243.55
842.777	151.15
843.212	155.55
843.648	152.85
844.083	82.25
844.519	59.25
844.954	51.25
845.39	37.85
845.825	44.55
846.261	37.45
846.696	40.35
847.131	34.55
847.566	42.05
848.002	36.65
848.437	34.05
848.872	44.95
849.307	44.15
849.742	60.85
850.177	123.15
850.613	386.55
851.048	646.35
851.483	285.75
851.918	110.35
852.353	62.05
852.788	39.35
853.223	39.85
853.657	39.35
854.092	34.55
854.527	29.95
854.962	30.55
855.397	34.65
855.832	42.95
856.266	27.25
856.701	25.25
857.136	27.65
857.57	30.25
858.005	40.05
858.44	45.85
858.874	27.45
859.309	39.05
859.743	30.45
860.178	31.95
860.612	25.45
861.047	29.25
861.481	56.15
861.915	60.55
862.35	42.45
862.784	25.35
863.218	30.35
863.653	26.15
864.087	37.65
864.521	39.25
864.955	47.25
865.39	109.45
865.824	126.85
866.258	95.25
866.692	146.05
867.126	166.15
867.56	96.05
867.994	44.85
868.428	26.85
868.862	35.85
869.296	46.45
869.73	48.85
870.164	51.55
870.598	34.95
871.031	33.65
871.465	24.35
871.899	23.05
872.333	18.05
872.766	15.65
873.2	18.25
873.634	21.75
874.067	18.85
874.501	18.55
874.935	29.05
875.368	23.15
875.802	19.65
876.235	16.35
876.669	17.65
877.102	13.15
877.535	18.25
877.969	21.15
878.402	19.05
878.836	15.95
879.269	14.35
879.702	19.95
880.135	15.95
880.569	13.95
881.002	17.45
881.435	14.05
881.868	12.85
882.301	16.75
882.734	9.15
883.167	10.35
883.601	7.45
884.034	18.55
884.467	10.55
884.899	12.25
885.332	6.35
885.765	14.45
886.198	9.75
886.631	15.45
887.064	17.35
887.497	17.75
887.929	18.45
888.362	7.95
888.795	5.95
889.228	18.55
889.66	15.05
890.093	11.95
890.526	12.15
890.958	5.95
891.391	13.75
891.823	13.35
892.256	12.05
892.688	0.75
893.121	13.85
893.553	6.95
893.985	15.95
894.418	20.25
894.85	8.65
895.282	13.95
895.715	13.55
896.147	12.35
896.579	12.95
897.011	14.15
897.444	16.65
897.876	6.55
898.308	16.05
898.74	9.15
899.172	14.55
899.604	18.55
900.036	14.35
900.468	15.45
900.9	10.25
901.332	14.55
901.764	8.15
902.196	15.25
902.628	7.45
903.06	11.15
903.491	25.45
903.923	19.95
904.355	16.35
904.787	21.35
905.218	16.05
905.65	16.95
906.082	10.55
906.513	7.05
906.945	15.95
907.376	12.45
907.808	13.65
908.239	16.55
908.671	12.45
909.102	19.75
909.534	16.65
909.965	29.35
910.397	65.45
910.828	235.85
911.259	363.05
911.691	170.65
912.122	77.55
912.553	41.35
912.984	27.15
913.415	19.15
913.847	23.15
914.278	9.25
914.709	12.95
915.14	17.75
915.571	13.05
916.002	7.35
916.433	16.55
916.864	10.15
917.295	6.65
917.726	20.95
918.157	6.95
918.587	23.85
919.018	16.35
919.449	19.85
919.88	16.85
920.311	29.95
920.741	35.75
921.172	119.05
921.603	113.55
922.033	51.75
922.464	39.35
922.895	19.55
923.325	20.95
923.756	7.25
924.186	6.15
924.617	15.55
925.047	23.35
925.478	21.95
925.908	21.95
926.338	10.65
926.769	8.95
927.199	14.05
927.629	8.15
928.06	6.35
928.49	8.45
928.92	12.85
929.35	8.95
929.78	11.45
930.21	9.15
930.641	5.45
931.071	10.45
931.501	1.75
931.931	9.65
932.361	7.05
932.791	3.35
933.221	1.35
933.651	10.75
934.08	12.05
934.51	25.65
934.94	4.45
935.37	1.05
935.8	11.35
936.229	5.55
936.659	5.95
937.089	0.45
937.519	15.25
937.948	21.45
938.378	16.65
938.807	4.35
939.237	7.25
939.666	12.55
940.096	-6.65
940.525	0.95
940.955	-1.15
941.384	2.45
941.814	-4.85
942.243	2.15
942.672	3.65
943.102	0.05
943.531	-4.05
943.96	-1.15
944.39	5.55
944.819	6.65
945.248	2.45
945.677	-0.55
946.106	5.65
946.535	1.95
946.964	2.25
947.393	5.15
947.822	-0.05
948.251	-1.35
948.68	0.25
949.109	4.45
949.538	7.25
949.967	-2.75
950.396	3.65
950.825	-4.95
951.254	6.65
951.682	-3.25
952.111	3.35
952.54	7.05
952.969	-6.45
953.397	-0.15
953.826	-3.15
954.254	-9.35
954.683	-0.45
955.112	-0.75
955.54	1.45
955.969	8.65
956.397	5.55
956.826	-4.25
957.254	6.95
957.682	6.15
958.111	2.95
958.539	3.05
958.967	5.05
959.396	-3.55
959.824	4.95
960.252	2.85
960.68	-3.95
961.109	-5.05
961.537	-0.45
961.965	2.35
962.393	3.35
962.821	1.75
963.249	3.55
963.677	8.15
964.105	-3.75
964.533	26.95
964.961	31.95
965.389	15.35
965.817	8.45
966.245	3.55
966.672	-3.05
967.1	-6.75
967.528	1.85
967.956	-6.75
968.383	5.95
968.811	-4.85
969.239	0.85
969.666	-0.45
970.094	7.45
970.522	2.95
970.949	-1.95
971.377	-0.85
971.804	-1.65
972.232	-1.95
972.659	-2.25
973.087	0.75
973.514	-4.95
973.941	-2.95
974.369	8.35
974.796	3.95
975.223	3.05
975.651	-1.65
976.078	8.85
976.505	-1.05
976.932	4.15
977.359	11.25
977.786	11.95
978.214	-0.45
978.641	-3.15
979.068	1.35
979.495	-2.25
979.922	-3.05
980.349	-0.75
980.776	7.45
981.202	0.05
981.629	-0.95
982.056	2.75
982.483	3.25
982.91	3.95
983.337	-0.15
983.763	10.15
984.19	-2.35
984.617	-2.85
985.043	-7.95
985.47	3.45
985.897	-7.35
986.323	-8.95
986.75	-0.65
987.176	-1.05
987.603	3.45
988.029	0.65
988.456	1.65
988.882	8.55
989.308	-8.55
989.735	-1.95
990.161	-2.05
990.587	-1.95
991.014	1.55
991.44	10.65
991.866	-3.75
992.292	-0.55
992.719	-11.55
993.145	4.15
993.571	-0.95
993.997	-4.45
994.423	-6.05
994.849	-3.05
995.275	4.25
995.701	1.55
996.127	-2.85
996.553	-4.05
996.979	5.45
997.405	3.65
997.83	-2.25
998.256	-8.95
998.682	-4.85
999.108	-1.55
999.534	0.05
999.959	-4.25
1000.385	-1.25
1000.811	3.65
1001.236	-7.55
1001.662	-5.45
1002.087	-6.85
1002.513	1.35
1002.938	4.95
1003.364	-1.35
1003.789	4.85
1004.215	2.45
1004.64	1.35
1005.066	3.55
1005.491	5.55
1005.916	-6.35
1006.342	-5.15
1006.767	-6.45
1007.192	3.95
1007.617	2.75
1008.042	3.05
1008.468	-7.65
1008.893	-5.15
1009.318	-2.45
1009.743	-1.55
1010.168	2.35
1010.593	1.15
1011.018	-7.75
1011.443	-2.45
1011.868	3.15
1012.293	2.15
1012.718	-10.05
1013.143	0.35
1013.567	4.45
1013.992	0.65
1014.417	-3.45
1014.842	4.05
1015.267	-4.25
1015.691	-3.35
1016.116	4.55
1016.541	1.75
1016.965	4.85
1017.39	5.65
1017.814	1.95
1018.239	1.35
1018.663	-0.25
1019.088	-9.85
1019.512	-0.75
1019.937	-1.95
1020.361	-3.95
1020.785	-10.55
1021.21	-1.45
1021.634	1.65
1022.058	1.25
1022.483	5.95
1022.907	-2.65
1023.331	-0.85
1023.755	-2.35
1024.179	-3.35
1024.604	-6.15
1025.028	-3.35
1025.452	-1.05
1025.876	-1.85
1026.3	-5.05
1026.724	-7.55
1027.148	-2.55
1027.572	-3.45
1027.996	-5.55
1028.42	1.15
1028.843	-5.75
1029.267	-1.95
1029.691	-0.25
1030.115	1.05
1030.539	-7.15
1030.962	-2.75
1031.386	-6.95
1031.81	-4.35
1032.233	-2.35
1032.657	-6.05
1033.08	-5.15
1033.504	-8.15
1033.927	0.35
1034.351	-1.45
1034.774	-0.15
1035.198	7.15
1035.621	-2.45
1036.045	-4.15
1036.468	4.45
1036.891	-6.35
1037.315	-5.75
1037.738	-5.05
1038.161	1.55
1038.584	-6.35
1039.008	-1.95
1039.431	-2.85
1039.854	8.05
1040.277	-8.55
1040.7	-6.55
1041.123	-1.05
1041.546	-1.65
1041.969	0.55
1042.392	-0.95
1042.815	-1.05
1043.238	-0.95
1043.661	8.75
1044.084	-2.35
1044.507	-2.25
1044.93	-4.25
1045.352	-4.65
1045.775	4.85
1046.198	-0.85
1046.621	1.55
1047.043	4.95
1047.466	11.35
1047.889	0.15
1048.311	0.25
1048.734	-2.35
1049.156	-1.25
1049.579	3.75
1050.001	-1.05
1050.424	5.05
1050.846	-5.45
1051.269	-0.25
1051.691	-6.25
1052.113	5.75
1052.536	-3.55
1052.958	1.05
1053.38	-3.35
1053.802	-9.35
1054.225	3.55
1054.647	-10.25
1055.069	-5.25
1055.491	5.05
1055.913	-3.95
1056.335	-0.45
1056.757	1.25
1057.179	-9.35
1057.601	-4.85
1058.023	0.45
1058.445	-4.95
1058.867	-1.75
1059.289	-1.65
1059.711	-4.15
1060.133	-4.05
1060.555	-1.05
1060.976	-2.05
1061.398	3.65
1061.82	-2.25
1062.241	-4.75
1062.663	-6.55
1063.085	0.35
1063.506	2.45
1063.928	-1.45
1064.35	-3.45
1064.771	-12.15
1065.193	-1.05
1065.614	-10.65
1066.035	-5.75
1066.457	4.35
1066.878	-1.85
1067.3	2.45
1067.721	-0.05
1068.142	2.85
1068.564	-1.65
1068.985	0.05
1069.406	-1.75
1069.827	-3.35
1070.248	6.85
1070.67	-4.75
1071.091	-7.75
1071.512	-4.55
1071.933	-1.35
1072.354	-10.65
1072.775	-5.15
1073.196	-5.05
1073.617	-2.05
1074.038	-6.95
1074.459	-0.75
1074.88	-5.65
1075.3	7.05
1075.721	-2.85
1076.142	4.15
1076.563	3.65
1076.983	-7.75
1077.404	-1.45
1077.825	-12.25
1078.246	-6.05
1078.666	-7.95
1079.087	-2.55
1079.507	-8.05
1079.928	-4.25
1080.348	-0.45
1080.769	-0.65
1081.189	-0.35
1081.61	-0.25
1082.03	-1.95
1082.451	-3.35
1082.871	1.25
1083.291	-1.95
1083.711	-4.85
1084.132	2.05
1084.552	-2.35
1084.972	2.25
1085.392	-1.15
1085.813	-4.25
1086.233	-3.55
1086.653	-2.55
1087.073	-1.95
1087.493	-2.15
1087.913	-2.25
1088.333	-3.15
1088.753	-1.55
1089.173	2.55
1089.593	1.25
1090.013	6.95
1090.433	-0.95
1090.852	0.15
1091.272	1.95
1091.692	-0.05
1092.112	-4.65
1092.531	-0.65
1092.951	-9.85
1093.371	-0.95
1093.79	2.15
1094.21	-3.75
1094.63	0.25
1095.049	-0.75
1095.469	4.35
1095.888	1.05
1096.308	2.75
1096.727	5.05
1097.146	-6.75
1097.566	2.15
1097.985	-0.75
1098.405	1.55
1098.824	-7.25
1099.243	-2.15
1099.662	-3.15
1100.082	0.35
1100.501	-5.35
1100.92	-4.15
1101.339	-3.55
1101.758	-6.55
