Data from 20171114-ORNL-Ar_H_NY_Subt18_08-06-11-726.txt Node
Date: Tue Nov 14 08:06:11 EST 2017
User: Ender
Spectrometer: HR+D1039
Trigger mode: 0
Integration Time (sec): 2.730000E-2
Scans to average: 10
Electric dark correction enabled: true
Nonlinearity correction enabled: false
Boxcar width: 0
XAxis mode: Wavelengths
Number of Pixels in Spectrum: 2048
>>>>>Begin Spectral Data<<<<<
187.836	-3.06
188.309	-3.06
188.782	-3.06
189.255	0.84
189.728	-1.86
190.201	3.84
190.674	0.94
191.147	1.64
191.619	-4.46
192.092	1.84
192.565	4.04
193.038	-2.26
193.511	-0.66
193.984	7.34
194.456	-4.16
194.929	2.44
195.402	-6.86
195.874	0.44
196.347	-4.36
196.82	-9.86
197.292	-2.36
197.765	2.14
198.237	-5.16
198.71	1.64
199.182	-0.06
199.655	5.54
200.127	2.44
200.6	-5.16
201.072	4.54
201.544	-5.16
202.017	-8.36
202.489	1.54
202.961	3.24
203.433	-1.56
203.906	-1.66
204.378	-2.56
204.85	-7.16
205.322	-7.96
205.794	-0.56
206.266	-1.96
206.739	-7.06
207.211	1.44
207.683	-6.96
208.155	-2.56
208.627	-3.76
209.099	-2.66
209.57	-7.86
210.042	0.94
210.514	4.04
210.986	2.64
211.458	-6.16
211.93	-2.86
212.402	2.44
212.873	-8.66
213.345	-2.36
213.817	-12.06
214.288	-5.56
214.76	-9.46
215.232	4.04
215.703	-1.46
216.175	-4.56
216.646	-3.36
217.118	-2.76
217.589	-4.56
218.061	-1.16
218.532	-3.66
219.004	0.84
219.475	-0.36
219.946	-3.36
220.418	-8.26
220.889	2.04
221.36	-1.86
221.832	0.94
222.303	-10.16
222.774	0.84
223.245	-12.16
223.717	-2.76
224.188	-2.06
224.659	-3.26
225.13	-7.66
225.601	3.34
226.072	6.74
226.543	-1.26
227.014	3.74
227.485	3.94
227.956	-2.96
228.427	-2.86
228.898	6.64
229.369	5.24
229.839	-3.76
230.31	-1.16
230.781	5.14
231.252	-7.56
231.722	-5.46
232.193	-7.66
232.664	-2.86
233.135	1.64
233.605	-0.56
234.076	-2.46
234.546	2.14
235.017	0.44
235.487	3.04
235.958	-0.16
236.428	-0.56
236.899	4.44
237.369	0.04
237.84	-0.76
238.31	10.34
238.78	5.24
239.251	2.74
239.721	-0.46
240.191	-3.36
240.662	-0.86
241.132	1.54
241.602	-0.76
242.072	4.34
242.542	6.44
243.013	-0.46
243.483	5.14
243.953	4.44
244.423	3.64
244.893	0.04
245.363	3.24
245.833	5.44
246.303	-3.86
246.773	7.14
247.243	5.84
247.712	5.34
248.182	8.74
248.652	10.64
249.122	-4.66
249.592	14.04
250.061	18.84
250.531	33.24
251.001	18.84
251.471	21.04
251.94	19.64
252.41	6.44
252.879	9.04
253.349	13.34
253.818	13.04
254.288	1.94
254.757	6.94
255.227	2.04
255.696	0.84
256.166	10.34
256.635	4.04
257.105	10.24
257.574	7.74
258.043	12.44
258.513	8.84
258.982	12.34
259.451	8.64
259.92	16.64
260.389	11.04
260.859	18.54
261.328	10.14
261.797	18.24
262.266	8.34
262.735	14.34
263.204	8.14
263.673	1.04
264.142	10.44
264.611	1.64
265.08	0.14
265.549	4.44
266.018	9.54
266.487	-0.66
266.955	-3.36
267.424	-5.96
267.893	11.84
268.362	1.64
268.83	-1.26
269.299	19.74
269.768	10.64
270.236	8.84
270.705	10.54
271.174	12.84
271.642	8.94
272.111	12.14
272.579	15.64
273.048	20.64
273.516	37.84
273.985	28.14
274.453	29.44
274.922	16.34
275.39	10.74
275.858	4.34
276.327	16.24
276.795	19.44
277.263	9.24
277.731	31.94
278.2	51.44
278.668	60.84
279.136	51.84
279.604	18.74
280.072	16.84
280.54	16.24
281.008	12.64
281.477	17.34
281.945	9.34
282.413	21.04
282.881	20.44
283.348	13.74
283.816	16.74
284.284	19.24
284.752	21.94
285.22	20.94
285.688	17.24
286.156	25.84
286.623	46.84
287.091	59.04
287.559	36.84
288.026	19.84
288.494	15.54
288.962	3.84
289.429	16.64
289.897	20.04
290.364	21.34
290.832	21.14
291.3	10.74
291.767	20.24
292.234	22.34
292.702	15.14
293.169	12.74
293.637	20.44
294.104	24.74
294.571	8.34
295.039	14.54
295.506	12.54
295.973	21.94
296.44	18.24
296.908	20.64
297.375	18.54
297.842	21.04
298.309	16.44
298.776	16.84
299.243	25.34
299.71	16.34
300.177	26.54
300.644	21.54
301.111	25.34
301.578	26.94
302.045	19.74
302.512	24.54
302.979	19.74
303.446	27.24
303.913	21.44
304.379	20.44
304.846	34.04
305.313	29.04
305.78	26.14
306.246	26.94
306.713	30.94
307.18	28.04
307.646	27.04
308.113	31.84
308.579	29.94
309.046	26.04
309.512	30.44
309.979	22.14
310.445	29.54
310.912	33.04
311.378	35.34
311.845	29.34
312.311	31.54
312.777	35.14
313.244	28.74
313.71	38.64
314.176	34.34
314.642	31.64
315.109	31.64
315.575	32.64
316.041	41.34
316.507	32.14
316.973	44.34
317.439	32.54
317.905	43.14
318.371	39.04
318.837	39.84
319.303	36.94
319.769	36.24
320.235	37.04
320.701	43.34
321.167	40.34
321.633	33.54
322.099	42.94
322.564	46.24
323.03	45.74
323.496	40.94
323.962	42.14
324.427	37.64
324.893	37.74
325.359	48.64
325.824	39.34
326.29	40.34
326.755	44.24
327.221	44.84
327.686	40.04
328.152	46.74
328.617	50.44
329.083	50.04
329.548	55.04
330.014	50.74
330.479	40.54
330.944	48.74
331.41	45.84
331.875	48.74
332.34	46.94
332.805	47.34
333.271	48.04
333.736	45.44
334.201	53.04
334.666	52.84
335.131	58.64
335.596	56.44
336.061	53.64
336.526	46.64
336.991	50.84
337.456	53.14
337.921	49.94
338.386	51.54
338.851	54.54
339.316	49.14
339.781	51.84
340.246	50.24
340.711	47.84
341.175	48.74
341.64	48.64
342.105	57.54
342.569	59.64
343.034	56.94
343.499	63.74
343.963	59.14
344.428	64.44
344.893	66.04
345.357	66.04
345.822	62.74
346.286	76.54
346.751	74.94
347.215	71.54
347.679	80.74
348.144	99.34
348.608	83.84
349.073	71.74
349.537	78.64
350.001	80.24
350.465	92.34
350.93	83.54
351.394	88.94
351.858	73.24
352.322	86.14
352.786	88.94
353.25	103.64
353.715	115.14
354.179	99.94
354.643	119.34
355.107	130.84
355.571	110.24
356.035	110.94
356.498	120.54
356.962	124.14
357.426	139.04
357.89	117.04
358.354	94.24
358.818	88.14
359.281	82.44
359.745	79.64
360.209	78.84
360.673	80.14
361.136	80.34
361.6	88.54
362.064	84.34
362.527	81.44
362.991	90.24
363.454	77.14
363.918	79.14
364.381	81.74
364.845	83.64
365.308	89.84
365.772	89.04
366.235	86.74
366.698	80.24
367.162	90.64
367.625	94.44
368.088	94.14
368.552	88.74
369.015	91.54
369.478	103.24
369.941	103.24
370.404	103.84
370.867	107.94
371.331	117.44
371.794	120.64
372.257	114.54
372.72	116.34
373.183	104.94
373.646	109.24
374.109	102.14
374.572	116.14
375.035	115.24
375.497	111.64
375.96	105.64
376.423	108.14
376.886	118.34
377.349	120.04
377.811	107.34
378.274	109.14
378.737	107.44
379.199	113.34
379.662	117.04
380.125	125.14
380.587	117.44
381.05	123.14
381.512	134.94
381.975	137.84
382.437	132.24
382.9	134.14
383.362	137.24
383.825	142.14
384.287	148.64
384.75	144.54
385.212	142.84
385.674	141.44
386.136	138.54
386.599	128.84
387.061	130.24
387.523	131.94
387.985	144.64
388.447	152.04
388.91	146.24
389.372	163.74
389.834	158.54
390.296	150.04
390.758	156.24
391.22	169.04
391.682	217.94
392.144	296.94
392.606	236.94
393.068	175.04
393.529	173.74
393.991	147.34
394.453	145.34
394.915	160.04
395.377	191.64
395.838	214.04
396.3	155.74
396.762	151.74
397.224	129.34
397.685	136.64
398.147	141.04
398.608	133.84
399.07	131.54
399.531	135.94
399.993	149.24
400.454	159.54
400.916	155.74
401.377	152.64
401.839	151.04
402.3	154.44
402.762	166.24
403.223	180.54
403.684	176.24
404.145	162.24
404.607	162.94
405.068	168.94
405.529	176.14
405.99	194.64
406.451	177.24
406.913	181.34
407.374	164.14
407.835	164.04
408.296	170.24
408.757	176.44
409.218	191.74
409.679	189.54
410.14	184.34
410.601	180.44
411.062	185.64
411.522	193.84
411.983	194.64
412.444	185.44
412.905	180.54
413.366	185.44
413.826	202.14
414.287	228.04
414.748	267.54
415.208	250.14
415.669	221.84
416.13	211.44
416.59	208.34
417.051	216.74
417.511	221.44
417.972	233.24
418.432	254.24
418.893	289.34
419.353	255.64
419.814	209.94
420.274	188.24
420.734	191.74
421.195	203.64
421.655	206.54
422.115	201.24
422.576	200.34
423.036	203.84
423.496	212.54
423.956	224.74
424.416	231.84
424.876	269.64
425.336	267.54
425.797	265.24
426.257	266.94
426.717	247.94
427.177	235.44
427.637	229.74
428.097	240.44
428.556	260.04
429.016	277.44
429.476	274.24
429.936	289.34
430.396	285.94
430.856	301.24
431.315	320.04
431.775	363.24
432.235	387.54
432.694	363.54
433.154	366.94
433.614	400.94
434.073	347.44
434.533	296.74
434.993	280.34
435.452	294.74
435.912	304.14
436.371	297.34
436.83	291.24
437.29	275.24
437.749	251.74
438.209	251.04
438.668	282.14
439.127	295.84
439.587	272.24
440.046	258.24
440.505	270.24
440.964	288.84
441.424	336.34
441.883	316.24
442.342	266.04
442.801	232.34
443.26	233.84
443.719	221.04
444.178	220.74
444.637	213.14
445.096	223.54
445.555	225.04
446.014	228.84
446.473	229.04
446.932	234.94
447.391	227.34
447.849	234.24
448.308	221.94
448.767	228.14
449.226	238.64
449.685	243.44
450.143	257.04
450.602	249.84
451.061	230.34
451.519	242.74
451.978	237.04
452.436	241.74
452.895	245.44
453.353	257.94
453.812	256.84
454.27	248.94
454.729	253.84
455.187	249.54
455.646	251.84
456.104	251.34
456.562	271.14
457.021	268.64
457.479	265.14
457.937	288.14
458.395	276.24
458.854	261.44
459.312	258.24
459.77	275.04
460.228	263.84
460.686	251.04
461.144	256.44
461.602	249.74
462.06	250.54
462.518	261.84
462.976	263.44
463.434	265.34
463.892	270.14
464.35	275.34
464.808	304.64
465.266	272.64
465.724	272.04
466.181	279.54
466.639	276.34
467.097	298.24
467.555	310.94
468.012	310.84
468.47	318.14
468.928	338.64
469.385	357.64
469.843	355.14
470.3	352.84
470.758	371.54
471.215	393.64
471.673	420.94
472.13	408.94
472.588	430.24
473.045	380.24
473.503	389.24
473.96	406.44
474.417	414.04
474.875	440.64
475.332	479.64
475.789	472.24
476.246	482.84
476.704	500.34
477.161	513.74
477.618	522.54
478.075	576.64
478.532	627.54
478.989	710.44
479.446	820.54
479.903	787.04
480.36	812.84
480.817	875.34
481.274	978.54
481.731	1080.64
482.188	1175.54
482.645	1310.44
483.102	1431.64
483.558	1572.64
484.015	1622.44
484.472	1599.24
484.929	1539.84
485.385	1488.34
485.842	1439.34
486.299	1392.44
486.755	1323.44
487.212	1116.44
487.668	947.84
488.125	871.64
488.582	788.94
489.038	763.54
489.494	722.54
489.951	707.54
490.407	676.94
490.864	659.04
491.32	652.84
491.776	654.74
492.233	666.54
492.689	628.84
493.145	620.44
493.602	613.04
494.058	622.64
494.514	634.04
494.97	645.94
495.426	663.84
495.882	640.14
496.338	630.04
496.794	633.54
497.251	629.34
497.707	643.74
498.163	651.84
498.618	648.14
499.074	658.44
499.53	692.74
499.986	697.84
500.442	670.94
500.898	651.04
501.354	634.64
501.809	644.04
502.265	654.94
502.721	684.24
503.177	693.84
503.632	680.84
504.088	695.64
504.543	732.34
504.999	725.64
505.455	674.54
505.91	647.74
506.366	651.34
506.821	634.54
507.277	642.24
507.732	649.14
508.187	626.84
508.643	639.74
509.098	656.84
509.553	672.24
510.009	686.14
510.464	675.44
510.919	698.14
511.375	703.54
511.83	729.64
512.285	746.04
512.74	773.04
513.195	802.44
513.65	782.24
514.105	775.04
514.56	784.04
515.015	809.34
515.47	820.04
515.925	809.44
516.38	797.44
516.835	814.14
517.29	802.54
517.745	794.94
518.2	777.54
518.655	764.34
519.109	759.44
519.564	764.54
520.019	747.04
520.474	738.34
520.928	740.24
521.383	734.14
521.838	727.04
522.292	728.44
522.747	713.64
523.201	714.04
523.656	704.24
524.11	715.74
524.565	709.64
525.019	705.34
525.474	714.54
525.928	709.44
526.382	713.94
526.837	712.34
527.291	716.24
527.745	707.94
528.2	709.84
528.654	700.14
529.108	702.34
529.562	695.54
530.016	700.14
530.47	704.04
530.925	703.24
531.379	715.94
531.833	714.94
532.287	715.84
532.741	712.14
533.195	716.74
533.649	723.54
534.103	731.34
534.556	719.64
535.01	722.44
535.464	728.34
535.918	733.94
536.372	740.84
536.826	735.74
537.279	722.34
537.733	724.94
538.187	723.44
538.64	724.44
539.094	734.94
539.548	747.84
540.001	738.24
540.455	732.34
540.908	741.04
541.362	746.84
541.815	755.94
542.269	769.04
542.722	764.34
543.175	782.64
543.629	792.64
544.082	793.24
544.536	808.24
544.989	789.24
545.442	811.64
545.895	794.44
546.349	804.64
546.802	808.24
547.255	818.74
547.708	820.34
548.161	822.94
548.614	831.44
549.067	847.64
549.52	835.04
549.973	827.04
550.426	814.44
550.879	806.24
551.332	808.94
551.785	820.74
552.238	818.34
552.691	826.34
553.144	851.94
553.596	867.04
554.049	876.04
554.502	907.64
554.955	932.74
555.407	930.54
555.86	914.74
556.313	906.64
556.765	901.94
557.218	907.74
557.67	895.54
558.123	888.94
558.576	890.34
559.028	889.74
559.48	894.84
559.933	883.24
560.385	857.44
560.838	826.94
561.29	791.54
561.742	797.14
562.195	772.24
562.647	779.14
563.099	780.84
563.551	780.94
564.004	799.54
564.456	784.54
564.908	774.44
565.36	746.04
565.812	751.94
566.264	739.34
566.716	744.04
567.168	722.34
567.62	728.34
568.072	717.14
568.524	714.24
568.976	706.84
569.428	681.64
569.88	687.44
570.332	693.64
570.784	687.44
571.235	685.84
571.687	705.04
572.139	711.24
572.59	723.64
573.042	736.94
573.494	727.74
573.945	725.84
574.397	700.84
574.849	698.84
575.3	705.74
575.752	703.44
576.203	684.14
576.655	685.14
577.106	684.94
577.557	676.24
578.009	672.04
578.46	674.24
578.912	683.44
579.363	680.04
579.814	675.74
580.265	662.94
580.717	678.24
581.168	683.14
581.619	689.64
582.07	691.34
582.521	674.34
582.972	683.54
583.423	683.14
583.875	693.64
584.326	713.94
584.777	749.44
585.227	829.34
585.678	915.54
586.129	1001.84
586.58	1067.44
587.031	1146.34
587.482	1288.74
587.933	1452.84
588.384	1291.74
588.834	975.94
589.285	801.34
589.736	786.04
590.186	779.74
590.637	770.74
591.088	768.44
591.538	751.84
591.989	739.84
592.439	735.64
592.89	733.04
593.34	720.44
593.791	721.54
594.241	715.34
594.692	721.64
595.142	712.74
595.593	713.64
596.043	722.94
596.493	718.94
596.943	718.24
597.394	731.74
597.844	714.44
598.294	731.44
598.744	755.74
599.195	767.94
599.645	817.44
600.095	856.04
600.545	918.04
600.995	982.74
601.445	1027.24
601.895	1091.44
602.345	1137.04
602.795	1123.14
603.245	1071.84
603.695	1019.14
604.145	956.44
604.594	907.64
605.044	864.64
605.494	804.64
605.944	759.24
606.393	744.74
606.843	736.64
607.293	743.84
607.743	731.74
608.192	748.74
608.642	763.24
609.091	775.54
609.541	771.04
609.99	779.44
610.44	767.04
610.889	720.84
611.339	706.14
611.788	690.24
612.238	712.94
612.687	721.34
613.136	725.34
613.586	743.24
614.035	739.74
614.484	760.64
614.933	754.04
615.383	765.54
615.832	746.04
616.281	725.34
616.73	685.14
617.179	670.34
617.628	655.84
618.077	644.24
618.526	626.84
618.975	615.84
619.424	619.94
619.873	617.54
620.322	624.14
620.771	617.24
621.22	617.24
621.669	597.14
622.118	587.54
622.567	594.94
623.015	580.54
623.464	579.64
623.913	560.64
624.361	556.94
624.81	561.34
625.259	563.64
625.707	553.14
626.156	558.94
626.604	565.64
627.053	561.04
627.501	565.74
627.95	572.24
628.398	578.84
628.847	569.24
629.295	576.14
629.744	580.94
630.192	570.24
630.64	578.14
631.089	566.74
631.537	582.44
631.985	585.94
632.433	609.64
632.881	607.84
633.33	658.54
633.778	630.64
634.226	568.24
634.674	579.44
635.122	583.94
635.57	599.94
636.018	636.64
636.466	587.74
636.914	570.94
637.362	578.54
637.81	576.04
638.258	579.94
638.705	583.04
639.153	602.64
639.601	623.24
640.049	651.94
640.497	667.94
640.944	689.14
641.392	639.84
641.84	616.04
642.287	593.14
642.735	571.04
643.182	574.24
643.63	577.84
644.078	578.04
644.525	598.94
644.973	599.44
645.42	608.24
645.867	620.04
646.315	644.04
646.762	669.14
647.21	697.24
647.657	698.94
648.104	743.54
648.551	773.64
648.999	836.94
649.446	918.14
649.893	1014.84
650.34	1166.74
650.787	1383.44
651.234	1714.54
651.682	2244.44
652.129	3070.24
652.576	4378.94
653.023	6504.54
653.47	8921.74
653.917	11163.94
654.363	12869.34
654.81	14302.94
655.257	13585.84
655.704	8875.44
656.151	5250.34
656.598	3399.14
657.044	2417.04
657.491	1855.34
657.938	1494.54
658.385	1253.74
658.831	1083.54
659.278	970.94
659.724	858.64
660.171	791.54
660.618	730.74
661.064	688.74
661.511	670.84
661.957	662.14
662.404	642.24
662.85	652.54
663.296	625.64
663.743	552.44
664.189	535.04
664.635	533.84
665.082	524.64
665.528	528.54
665.974	514.34
666.42	511.54
666.867	507.94
667.313	488.74
667.759	481.04
668.205	474.14
668.651	482.34
669.097	483.04
669.543	491.84
669.989	461.14
670.435	448.74
670.881	445.74
671.327	453.14
671.773	464.44
672.219	500.44
672.665	544.24
673.11	580.54
673.556	626.74
674.002	673.54
674.448	652.94
674.893	540.14
675.339	485.14
675.785	439.94
676.23	411.24
676.676	391.54
677.122	380.24
677.567	369.74
678.013	363.64
678.458	363.24
678.904	366.54
679.349	352.64
679.794	351.24
680.24	348.84
680.685	344.54
681.131	347.64
681.576	355.24
682.021	357.04
682.466	351.64
682.912	339.64
683.357	355.64
683.802	374.94
684.247	409.94
684.692	453.74
685.137	482.34
685.583	524.84
686.028	559.14
686.473	514.74
686.918	438.44
687.363	412.24
687.807	394.64
688.252	366.94
688.697	352.44
689.142	338.64
689.587	328.44
690.032	329.34
690.477	343.74
690.921	350.84
691.366	378.84
691.811	400.64
692.255	428.54
692.7	453.04
693.145	487.14
693.589	692.84
694.034	1108.34
694.478	1514.04
694.923	1721.64
695.367	2255.94
695.812	1173.54
696.256	486.64
696.701	366.34
697.145	341.44
697.59	325.84
698.034	319.04
698.478	329.04
698.922	320.34
699.367	316.44
699.811	333.44
700.255	350.84
700.699	383.54
701.143	421.74
701.588	465.64
702.032	511.54
702.476	514.04
702.92	488.44
703.364	498.64
703.808	635.24
704.252	1014.14
704.696	1420.74
705.14	1652.14
705.584	2083.34
706.027	1048.54
706.471	514.54
706.915	392.04
707.359	351.14
707.803	306.64
708.246	306.64
708.69	316.04
709.134	311.54
709.577	308.34
710.021	309.84
710.465	310.74
710.908	295.34
711.352	297.14
711.795	307.14
712.239	341.84
712.682	384.84
713.126	419.74
713.569	461.34
714.012	368.94
714.456	313.64
714.899	294.94
715.342	280.94
715.786	260.84
716.229	257.54
716.672	250.24
717.115	249.44
717.558	250.04
718.002	248.94
718.445	266.84
718.888	284.44
719.331	292.04
719.774	299.54
720.217	301.54
720.66	285.64
721.103	272.54
721.546	258.84
721.989	242.34
722.432	234.84
722.874	239.64
723.317	225.34
723.76	237.14
724.203	257.34
724.645	324.44
725.088	441.24
725.531	559.84
725.974	639.84
726.416	541.54
726.859	302.14
727.301	238.54
727.744	231.44
728.187	229.64
728.629	236.84
729.071	239.84
729.514	255.14
729.956	266.14
730.399	286.64
730.841	288.34
731.283	277.54
731.726	265.34
732.168	257.24
732.61	264.04
733.053	285.64
733.495	309.94
733.937	350.14
734.379	395.34
734.821	433.14
735.263	533.04
735.705	819.34
736.148	1544.94
736.59	2546.04
737.032	3014.94
737.474	2454.14
737.916	800.54
738.357	415.44
738.799	321.54
739.241	298.74
739.683	279.74
740.125	291.84
740.567	290.54
741.008	316.24
741.45	307.94
741.892	316.44
742.334	346.84
742.775	361.74
743.217	336.24
743.658	266.14
744.1	244.54
744.542	258.84
744.983	308.34
745.425	336.84
745.866	344.34
746.307	275.54
746.749	280.74
747.19	320.94
747.632	441.24
748.073	862.94
748.514	1818.14
748.956	2798.44
749.397	3493.44
749.838	2912.74
750.279	2898.94
750.72	1467.44
751.162	541.04
751.603	315.94
752.044	251.34
752.485	210.94
752.926	210.74
753.367	205.14
753.808	193.84
754.249	188.74
754.69	183.74
755.131	181.64
755.572	178.24
756.013	178.24
756.453	179.14
756.894	187.54
757.335	187.84
757.776	189.34
758.216	191.84
758.657	196.24
759.098	200.14
759.538	223.04
759.979	269.34
760.42	362.24
760.86	684.94
761.301	1756.94
761.741	4331.44
762.182	6311.84
762.622	4454.34
763.063	1291.94
763.503	537.14
763.943	339.24
764.384	328.44
764.824	389.04
765.264	414.24
765.705	288.64
766.145	216.04
766.585	186.74
767.025	179.44
767.465	180.14
767.906	235.94
768.346	309.34
768.786	328.14
769.226	257.34
769.666	311.14
770.106	591.24
770.546	1502.64
770.986	2603.74
771.426	2338.74
771.866	783.84
772.306	320.44
772.745	208.54
773.185	172.24
773.625	171.04
774.065	163.14
774.505	192.24
774.944	295.44
775.384	640.14
775.824	1176.34
776.263	1147.34
776.703	486.84
777.142	207.04
777.582	155.34
778.021	139.34
778.461	139.64
778.9	142.64
779.34	135.54
779.779	115.64
780.219	106.54
780.658	109.74
781.097	101.94
781.537	115.84
781.976	107.64
782.415	108.44
782.855	106.74
783.294	94.74
783.733	109.34
784.172	109.84
784.611	103.14
785.05	107.84
785.489	107.14
785.928	120.54
786.367	123.64
786.806	128.74
787.245	131.04
787.684	138.34
788.123	148.74
788.562	136.74
789.001	133.84
789.44	126.64
789.879	117.94
790.317	112.64
790.756	125.94
791.195	128.84
791.634	143.94
792.072	203.84
792.511	358.54
792.95	976.04
793.388	2100.74
793.827	1914.64
794.265	669.74
794.704	277.34
795.142	181.54
795.581	155.84
796.019	137.84
796.458	128.34
796.896	120.74
797.334	136.24
797.773	154.04
798.211	215.64
798.649	427.14
799.087	984.44
799.526	1554.84
799.964	1972.94
800.402	1981.84
800.84	743.44
801.278	303.34
801.716	187.54
802.154	152.84
802.592	145.54
803.03	136.74
803.468	132.14
803.906	141.24
804.344	145.94
804.782	138.54
805.22	129.44
805.658	125.74
806.096	146.24
806.533	151.44
806.971	169.14
807.409	213.94
807.847	310.44
808.284	643.04
808.722	1815.74
809.16	3226.94
809.597	3030.74
810.035	5313.94
810.472	5703.04
810.91	2052.54
811.347	783.14
811.785	396.74
812.222	253.34
812.66	197.44
813.097	159.84
813.535	130.84
813.972	129.94
814.409	121.64
814.846	109.74
815.284	109.34
815.721	103.84
816.158	109.44
816.595	124.84
817.032	173.04
817.47	195.64
817.907	168.94
818.344	144.04
818.781	121.34
819.218	103.74
819.655	124.74
820.092	183.74
820.529	211.54
820.966	177.74
821.403	130.24
821.839	109.54
822.276	99.34
822.713	123.84
823.15	132.84
823.587	115.64
824.023	143.34
824.46	291.64
824.897	870.34
825.333	1323.74
825.77	569.44
826.206	224.04
826.643	127.84
827.08	102.64
827.516	79.64
827.953	74.04
828.389	80.54
828.825	74.34
829.262	70.24
829.698	68.04
830.135	62.24
830.571	61.84
831.007	68.84
831.443	69.94
831.88	67.14
832.316	62.44
832.752	71.24
833.188	68.34
833.624	65.34
834.06	65.64
834.497	70.14
834.933	66.44
835.369	72.04
835.805	66.44
836.241	74.74
836.677	75.04
837.112	87.44
837.548	104.14
837.984	130.84
838.42	199.64
838.856	483.94
839.292	1473.44
839.727	2271.04
840.163	1048.84
840.599	904.94
841.034	1977.44
841.47	2090.44
841.906	773.94
842.341	330.44
842.777	225.34
843.212	303.74
843.648	299.34
844.083	150.84
844.519	96.84
844.954	74.14
845.39	63.84
845.825	57.64
846.261	61.24
846.696	57.74
847.131	51.44
847.566	60.54
848.002	55.84
848.437	57.04
848.872	60.94
849.307	65.94
849.742	83.74
850.177	177.24
850.613	538.24
851.048	866.34
851.483	370.04
851.918	154.84
852.353	89.84
852.788	69.54
853.223	54.34
853.657	52.04
854.092	45.64
854.527	43.44
854.962	43.94
855.397	49.34
855.832	52.04
856.266	47.54
856.701	41.24
857.136	39.74
857.57	38.94
858.005	49.14
858.44	61.04
858.874	48.64
859.309	54.04
859.743	43.34
860.178	48.34
860.612	40.84
861.047	53.64
861.481	65.74
861.915	73.14
862.35	50.34
862.784	31.94
863.218	36.64
863.653	35.54
864.087	43.54
864.521	55.44
864.955	68.54
865.39	152.54
865.824	167.14
866.258	115.84
866.692	164.44
867.126	174.24
867.56	97.94
867.994	53.64
868.428	34.34
868.862	56.14
869.296	51.44
869.73	53.84
870.164	50.24
870.598	46.84
871.031	38.14
871.465	34.94
871.899	33.64
872.333	27.34
872.766	31.54
873.2	23.54
873.634	26.14
874.067	25.74
874.501	30.94
874.935	36.54
875.368	35.64
875.802	26.44
876.235	24.34
876.669	29.84
877.102	23.14
877.535	28.74
877.969	24.74
878.402	26.34
878.836	18.34
879.269	27.84
879.702	26.24
880.135	18.34
880.569	20.54
881.002	23.24
881.435	22.04
881.868	19.24
882.301	22.04
882.734	17.74
883.167	28.64
883.601	20.74
884.034	24.54
884.467	14.44
884.899	23.54
885.332	16.84
885.765	12.54
886.198	20.64
886.631	18.74
887.064	19.14
887.497	26.24
887.929	24.44
888.362	11.34
888.795	15.04
889.228	13.44
889.66	17.74
890.093	14.84
890.526	13.14
890.958	19.14
891.391	22.44
891.823	22.14
892.256	21.44
892.688	15.64
893.121	21.04
893.553	18.54
893.985	22.14
894.418	17.54
894.85	14.64
895.282	19.14
895.715	11.84
896.147	21.64
896.579	19.84
897.011	17.94
897.444	16.74
897.876	13.54
898.308	20.34
898.74	21.04
899.172	10.04
899.604	28.34
900.036	19.64
900.468	18.94
900.9	17.44
901.332	21.64
901.764	21.44
902.196	23.54
902.628	19.04
903.06	18.04
903.491	24.94
903.923	27.94
904.355	25.84
904.787	20.74
905.218	16.84
905.65	18.84
906.082	10.54
906.513	8.44
906.945	20.54
907.376	16.44
907.808	22.44
908.239	19.94
908.671	22.44
909.102	26.44
909.534	22.84
909.965	47.54
910.397	90.84
910.828	314.04
911.259	464.64
911.691	215.94
912.122	105.64
912.553	49.44
912.984	40.34
913.415	31.34
913.847	25.54
914.278	23.14
914.709	14.44
915.14	21.94
915.571	20.64
916.002	14.54
916.433	21.34
916.864	17.74
917.295	14.74
917.726	25.54
918.157	15.44
918.587	26.94
919.018	23.84
919.449	24.14
919.88	22.64
920.311	29.44
920.741	49.64
921.172	159.24
921.603	149.34
922.033	73.14
922.464	45.14
922.895	20.04
923.325	24.84
923.756	16.24
924.186	17.34
924.617	25.14
925.047	37.84
925.478	55.74
925.908	44.24
926.338	25.14
926.769	14.94
927.199	23.34
927.629	7.04
928.06	16.24
928.49	12.44
928.92	13.94
929.35	12.34
929.78	8.54
930.21	9.14
930.641	9.94
931.071	15.34
931.501	11.44
931.931	4.74
932.361	6.34
932.791	1.64
933.221	8.64
933.651	8.44
934.08	20.74
934.51	33.44
934.94	6.84
935.37	10.14
935.8	11.34
936.229	8.94
936.659	11.64
937.089	4.74
937.519	17.74
937.948	24.44
938.378	18.14
938.807	5.24
939.237	6.14
939.666	10.84
940.096	-3.06
940.525	6.84
940.955	1.04
941.384	7.54
941.814	-3.86
942.243	6.34
942.672	6.24
943.102	2.44
943.531	8.44
943.96	5.94
944.39	0.14
944.819	7.44
945.248	1.14
945.677	4.04
946.106	11.24
946.535	3.14
946.964	-5.36
947.393	6.64
947.822	-0.66
948.251	0.74
948.68	6.84
949.109	11.14
949.538	7.44
949.967	6.04
950.396	-2.76
950.825	3.24
951.254	-0.46
951.682	-0.46
952.111	3.44
952.54	5.34
952.969	-6.06
953.397	-4.06
953.826	3.94
954.254	1.54
954.683	2.74
955.112	5.44
955.54	6.44
955.969	1.64
956.397	4.34
956.826	0.74
957.254	4.14
957.682	3.74
958.111	1.84
958.539	1.34
958.967	3.44
959.396	0.84
959.824	4.54
960.252	3.34
960.68	-0.06
961.109	0.34
961.537	-1.36
961.965	-3.06
962.393	2.24
962.821	-0.66
963.249	1.14
963.677	6.14
964.105	8.34
964.533	48.44
964.961	39.94
965.389	16.74
965.817	4.74
966.245	7.34
966.672	-1.96
967.1	-4.66
967.528	-0.06
967.956	6.84
968.383	-0.06
968.811	-0.06
969.239	3.24
969.666	-6.16
970.094	8.24
970.522	1.74
970.949	0.64
971.377	-7.16
971.804	-4.16
972.232	-4.96
972.659	-1.76
973.087	0.24
973.514	1.54
973.941	-4.76
974.369	6.24
974.796	-0.16
975.223	0.94
975.651	0.84
976.078	1.44
976.505	-3.96
976.932	-0.66
977.359	14.84
977.786	20.74
978.214	0.74
978.641	0.44
979.068	-6.46
979.495	0.04
979.922	-2.96
980.349	-1.76
980.776	8.34
981.202	0.44
981.629	7.34
982.056	2.74
982.483	2.64
982.91	0.74
983.337	-5.16
983.763	2.04
984.19	-0.86
984.617	-0.96
985.043	-5.56
985.47	-6.16
985.897	-2.66
986.323	-6.56
986.75	2.04
987.176	1.14
987.603	2.64
988.029	1.24
988.456	-0.16
988.882	1.74
989.308	-2.06
989.735	-3.56
990.161	-1.96
990.587	-7.76
991.014	-1.86
991.44	7.24
991.866	1.94
992.292	-6.76
992.719	-1.46
993.145	8.94
993.571	-6.56
993.997	-1.36
994.423	-2.16
994.849	0.84
995.275	2.14
995.701	0.34
996.127	-3.96
996.553	1.84
996.979	-0.56
997.405	-2.46
997.83	-4.46
998.256	-5.86
998.682	-10.36
999.108	-7.56
999.534	3.74
999.959	-3.66
1000.385	-0.56
1000.811	-0.16
1001.236	-5.06
1001.662	-5.66
1002.087	-9.66
1002.513	-0.66
1002.938	-0.56
1003.364	2.04
1003.789	6.44
1004.215	2.44
1004.64	0.14
1005.066	1.24
1005.491	5.34
1005.916	-6.76
1006.342	-6.26
1006.767	-14.46
1007.192	6.44
1007.617	-2.06
1008.042	-3.26
1008.468	-1.96
1008.893	-2.56
1009.318	-4.36
1009.743	-2.76
1010.168	7.64
1010.593	3.94
1011.018	-7.16
1011.443	-1.56
1011.868	0.04
1012.293	-4.06
1012.718	-2.06
1013.143	3.14
1013.567	2.04
1013.992	2.74
1014.417	-12.16
1014.842	-1.16
1015.267	-5.86
1015.691	-0.86
1016.116	1.34
1016.541	-2.06
1016.965	7.64
1017.39	4.34
1017.814	4.04
1018.239	1.24
1018.663	-7.36
1019.088	-9.26
1019.512	-1.66
1019.937	0.14
1020.361	0.44
1020.785	-10.46
1021.21	-10.26
1021.634	0.94
1022.058	-2.26
1022.483	5.14
1022.907	-5.86
1023.331	-1.86
1023.755	1.24
1024.179	-0.16
1024.604	-1.16
1025.028	-4.96
1025.452	1.44
1025.876	-4.36
1026.3	-1.76
1026.724	-8.06
1027.148	-2.56
1027.572	-8.06
1027.996	-4.86
1028.42	3.84
1028.843	1.14
1029.267	-2.36
1029.691	0.74
1030.115	-5.06
1030.539	-6.26
1030.962	-4.46
1031.386	-3.66
1031.81	0.74
1032.233	7.44
1032.657	2.24
1033.08	-2.86
1033.504	-4.06
1033.927	-1.06
1034.351	-3.56
1034.774	-5.66
1035.198	4.34
1035.621	-2.16
1036.045	-2.76
1036.468	5.84
1036.891	-9.06
1037.315	-10.66
1037.738	-7.56
1038.161	1.04
1038.584	-2.46
1039.008	-2.36
1039.431	-3.26
1039.854	-0.46
1040.277	-5.06
1040.7	-12.06
1041.123	-2.16
1041.546	-3.86
1041.969	-5.36
1042.392	-1.86
1042.815	3.84
1043.238	0.74
1043.661	-0.36
1044.084	-8.56
1044.507	-0.86
1044.93	-6.36
1045.352	-2.46
1045.775	1.54
1046.198	-5.86
1046.621	0.54
1047.043	1.74
1047.466	0.44
1047.889	-6.16
1048.311	-4.36
1048.734	-9.96
1049.156	-0.16
1049.579	1.74
1050.001	-0.86
1050.424	2.14
1050.846	-1.06
1051.269	-1.46
1051.691	-2.96
1052.113	-3.26
1052.536	-3.36
1052.958	4.44
1053.38	-4.66
1053.802	-10.56
1054.225	1.04
1054.647	-5.66
1055.069	-9.46
1055.491	4.24
1055.913	-1.66
1056.335	-2.16
1056.757	3.34
1057.179	-9.96
1057.601	-1.26
1058.023	-1.36
1058.445	-1.16
1058.867	-3.16
1059.289	0.84
1059.711	-6.86
1060.133	-0.96
1060.555	-4.56
1060.976	-4.66
1061.398	-6.86
1061.82	-3.16
1062.241	-7.16
1062.663	-11.76
1063.085	-0.36
1063.506	1.24
1063.928	0.84
1064.35	-1.26
1064.771	-7.96
1065.193	-2.16
1065.614	-11.66
1066.035	-1.16
1066.457	-5.26
1066.878	-2.06
1067.3	-7.76
1067.721	1.04
1068.142	-6.46
1068.564	-4.26
1068.985	-6.06
1069.406	-4.76
1069.827	-2.46
1070.248	-3.96
1070.67	-5.06
1071.091	-3.86
1071.512	-1.86
1071.933	-5.36
1072.354	-5.66
1072.775	-2.36
1073.196	-9.76
1073.617	-1.16
1074.038	-6.06
1074.459	-3.96
1074.88	-4.76
1075.3	-2.76
1075.721	-2.06
1076.142	2.14
1076.563	3.94
1076.983	-11.86
1077.404	-9.16
1077.825	-5.56
1078.246	0.24
1078.666	-6.76
1079.087	-0.96
1079.507	-7.66
1079.928	1.44
1080.348	2.44
1080.769	-4.96
1081.189	3.44
1081.61	0.64
1082.03	-7.26
1082.451	-5.26
1082.871	-2.16
1083.291	-11.96
1083.711	-8.76
1084.132	-8.86
1084.552	-8.26
1084.972	0.94
1085.392	-11.76
1085.813	-8.36
1086.233	-1.36
1086.653	-1.36
1087.073	-2.46
1087.493	1.44
1087.913	-2.56
1088.333	-9.46
1088.753	-2.26
1089.173	2.74
1089.593	-4.36
1090.013	-0.36
1090.433	1.24
1090.852	-4.06
1091.272	-3.16
1091.692	-0.76
1092.112	-5.06
1092.531	-3.66
1092.951	-8.76
1093.371	-5.36
1093.79	2.24
1094.21	-0.86
1094.63	-2.16
1095.049	-4.76
1095.469	2.44
1095.888	-3.06
1096.308	4.84
1096.727	2.24
1097.146	-4.26
1097.566	-0.76
1097.985	-9.16
1098.405	-1.66
1098.824	-8.96
1099.243	-3.66
1099.662	-5.36
1100.082	-0.36
1100.501	1.54
1100.92	-3.76
1101.339	-5.76
1101.758	-2.46
