Data from 20171114-ORNL-Ar_H_NY_Subt18_08-06-28-377.txt Node
Date: Tue Nov 14 08:06:28 EST 2017
User: Ender
Spectrometer: HR+D1039
Trigger mode: 0
Integration Time (sec): 2.730000E-2
Scans to average: 10
Electric dark correction enabled: true
Nonlinearity correction enabled: false
Boxcar width: 0
XAxis mode: Wavelengths
Number of Pixels in Spectrum: 2048
>>>>>Begin Spectral Data<<<<<
187.836	-1.66
188.309	-1.66
188.782	-1.66
189.255	-2.66
189.728	0.74
190.201	10.34
190.674	5.64
191.147	-0.46
191.619	-7.66
192.092	2.84
192.565	2.14
193.038	0.04
193.511	2.14
193.984	0.24
194.456	-4.96
194.929	-2.86
195.402	-2.26
195.874	-1.66
196.347	-2.26
196.82	-9.86
197.292	8.44
197.765	-1.36
198.237	-10.06
198.71	3.74
199.182	-4.56
199.655	1.64
200.127	3.94
200.6	0.24
201.072	-3.96
201.544	-6.26
202.017	-8.46
202.489	-0.56
202.961	-3.46
203.433	-4.46
203.906	-8.76
204.378	-4.06
204.85	-5.56
205.322	-10.56
205.794	0.74
206.266	-4.46
206.739	-6.96
207.211	0.84
207.683	-5.26
208.155	0.94
208.627	-9.36
209.099	-1.16
209.57	-9.66
210.042	-3.56
210.514	-0.56
210.986	1.64
211.458	-9.36
211.93	-1.46
212.402	-1.46
212.873	-10.76
213.345	-11.36
213.817	-16.46
214.288	-5.06
214.76	-13.26
215.232	2.04
215.703	0.04
216.175	-1.76
216.646	-2.16
217.118	-3.46
217.589	-8.86
218.061	-3.06
218.532	-4.86
219.004	-0.36
219.475	-8.46
219.946	-5.56
220.418	-1.66
220.889	3.84
221.36	0.34
221.832	-4.76
222.303	-5.96
222.774	-1.66
223.245	-6.56
223.717	-7.86
224.188	-2.96
224.659	-10.86
225.13	-8.56
225.601	-9.96
226.072	-2.86
226.543	1.64
227.014	-0.56
227.485	-4.76
227.956	-4.66
228.427	-0.76
228.898	0.74
229.369	8.74
229.839	-5.76
230.31	-6.26
230.781	-0.26
231.252	-2.46
231.722	-0.06
232.193	-0.66
232.664	3.24
233.135	0.04
233.605	-2.26
234.076	-3.86
234.546	-1.46
235.017	6.64
235.487	0.94
235.958	-3.56
236.428	-2.06
236.899	0.24
237.369	2.04
237.84	-1.36
238.31	3.54
238.78	1.84
239.251	2.34
239.721	1.54
240.191	3.34
240.662	-1.56
241.132	-0.66
241.602	-5.86
242.072	1.44
242.542	2.84
243.013	2.64
243.483	5.34
243.953	-0.86
244.423	-3.66
244.893	-0.66
245.363	7.44
245.833	3.04
246.303	-0.26
246.773	11.54
247.243	1.34
247.712	1.04
248.182	12.24
248.652	9.54
249.122	-2.26
249.592	8.04
250.061	20.84
250.531	29.94
251.001	16.74
251.471	20.64
251.94	22.24
252.41	9.64
252.879	3.64
253.349	13.44
253.818	9.64
254.288	6.44
254.757	0.84
255.227	2.64
255.696	5.84
256.166	3.24
256.635	5.54
257.105	9.74
257.574	5.04
258.043	12.14
258.513	6.54
258.982	16.84
259.451	6.24
259.92	9.64
260.389	9.64
260.859	17.54
261.328	10.94
261.797	15.04
262.266	14.94
262.735	13.44
263.204	10.84
263.673	1.14
264.142	6.54
264.611	-3.66
265.08	0.34
265.549	-1.66
266.018	4.74
266.487	0.54
266.955	-5.66
267.424	1.74
267.893	9.24
268.362	0.44
268.83	8.74
269.299	10.34
269.768	4.04
270.236	8.14
270.705	3.84
271.174	3.44
271.642	8.64
272.111	12.64
272.579	14.64
273.048	21.04
273.516	25.54
273.985	27.54
274.453	17.04
274.922	13.14
275.39	7.04
275.858	0.24
276.327	15.94
276.795	15.04
277.263	12.14
277.731	26.64
278.2	52.84
278.668	50.24
279.136	46.14
279.604	15.94
280.072	13.84
280.54	13.34
281.008	10.44
281.477	12.34
281.945	13.54
282.413	16.14
282.881	15.24
283.348	10.64
283.816	14.04
284.284	14.84
284.752	19.74
285.22	13.24
285.688	14.24
286.156	20.34
286.623	42.84
287.091	48.84
287.559	24.74
288.026	14.54
288.494	18.34
288.962	8.44
289.429	12.24
289.897	15.74
290.364	13.54
290.832	12.74
291.3	15.34
291.767	14.74
292.234	18.14
292.702	18.74
293.169	18.34
293.637	30.64
294.104	16.34
294.571	10.24
295.039	12.24
295.506	14.34
295.973	16.44
296.44	13.74
296.908	14.74
297.375	16.84
297.842	17.84
298.309	14.04
298.776	12.74
299.243	13.74
299.71	13.24
300.177	26.54
300.644	20.64
301.111	20.74
301.578	23.84
302.045	16.74
302.512	21.74
302.979	22.04
303.446	21.94
303.913	16.74
304.379	23.04
304.846	26.74
305.313	26.14
305.78	18.64
306.246	25.74
306.713	30.14
307.18	23.84
307.646	25.04
308.113	32.54
308.579	30.94
309.046	27.64
309.512	27.04
309.979	21.44
310.445	32.04
310.912	30.94
311.378	35.24
311.845	35.54
312.311	27.84
312.777	38.44
313.244	30.74
313.71	33.74
314.176	32.74
314.642	31.54
315.109	29.44
315.575	34.94
316.041	41.24
316.507	31.64
316.973	43.54
317.439	32.94
317.905	36.14
318.371	36.34
318.837	31.14
319.303	29.64
319.769	27.34
320.235	38.14
320.701	35.94
321.167	34.24
321.633	36.74
322.099	39.34
322.564	44.34
323.03	42.84
323.496	40.74
323.962	41.24
324.427	32.84
324.893	43.94
325.359	36.04
325.824	40.04
326.29	33.94
326.755	38.54
327.221	46.54
327.686	40.14
328.152	46.64
328.617	36.34
329.083	49.34
329.548	49.44
330.014	48.74
330.479	37.04
330.944	48.04
331.41	43.74
331.875	46.24
332.34	43.34
332.805	40.84
333.271	42.24
333.736	48.54
334.201	53.54
334.666	53.34
335.131	55.94
335.596	51.94
336.061	46.44
336.526	35.24
336.991	47.94
337.456	53.94
337.921	54.04
338.386	43.44
338.851	44.64
339.316	45.94
339.781	50.44
340.246	49.54
340.711	47.94
341.175	52.94
341.64	39.64
342.105	56.34
342.569	58.74
343.034	61.44
343.499	54.94
343.963	54.04
344.428	58.34
344.893	62.74
345.357	61.04
345.822	59.04
346.286	67.34
346.751	70.34
347.215	69.14
347.679	75.04
348.144	98.74
348.608	80.34
349.073	71.54
349.537	70.14
350.001	80.94
350.465	89.94
350.93	79.64
351.394	86.24
351.858	69.24
352.322	85.64
352.786	81.64
353.25	103.34
353.715	110.44
354.179	106.54
354.643	114.94
355.107	124.54
355.571	105.34
356.035	97.94
356.498	120.54
356.962	123.04
357.426	133.04
357.89	116.44
358.354	89.04
358.818	82.44
359.281	76.74
359.745	72.24
360.209	72.94
360.673	74.04
361.136	81.24
361.6	78.74
362.064	85.54
362.527	82.04
362.991	89.14
363.454	79.94
363.918	75.94
364.381	77.44
364.845	87.54
365.308	85.24
365.772	88.44
366.235	87.44
366.698	84.94
367.162	80.94
367.625	86.94
368.088	86.34
368.552	91.14
369.015	93.34
369.478	97.54
369.941	87.14
370.404	90.54
370.867	105.14
371.331	103.94
371.794	116.54
372.257	107.64
372.72	114.54
373.183	108.64
373.646	101.04
374.109	102.34
374.572	103.74
375.035	108.74
375.497	108.74
375.96	103.74
376.423	103.14
376.886	109.74
377.349	112.04
377.811	105.54
378.274	107.04
378.737	108.04
379.199	110.14
379.662	111.54
380.125	111.54
380.587	114.74
381.05	117.34
381.512	125.54
381.975	129.94
382.437	137.64
382.9	123.34
383.362	133.44
383.825	141.34
384.287	150.74
384.75	137.64
385.212	136.24
385.674	140.54
386.136	140.14
386.599	129.14
387.061	126.54
387.523	127.74
387.985	132.64
388.447	143.14
388.91	136.24
389.372	155.94
389.834	149.34
390.296	149.14
390.758	153.54
391.22	174.84
391.682	214.04
392.144	294.34
392.606	222.44
393.068	164.14
393.529	171.14
393.991	152.54
394.453	150.94
394.915	152.64
395.377	193.84
395.838	210.64
396.3	154.14
396.762	140.54
397.224	137.04
397.685	132.24
398.147	133.24
398.608	131.34
399.07	137.64
399.531	135.84
399.993	141.74
400.454	149.34
400.916	144.84
401.377	142.44
401.839	151.54
402.3	151.14
402.762	161.54
403.223	179.94
403.684	174.74
404.145	169.34
404.607	158.04
405.068	164.04
405.529	174.04
405.99	192.64
406.451	175.94
406.913	176.04
407.374	163.64
407.835	164.44
408.296	161.54
408.757	173.14
409.218	187.54
409.679	182.64
410.14	172.24
410.601	172.84
411.062	186.14
411.522	188.94
411.983	190.84
412.444	169.74
412.905	178.14
413.366	184.44
413.826	187.34
414.287	218.24
414.748	265.94
415.208	244.84
415.669	215.34
416.13	200.34
416.59	203.94
417.051	215.04
417.511	215.54
417.972	235.04
418.432	247.04
418.893	284.24
419.353	245.64
419.814	200.34
420.274	184.74
420.734	187.84
421.195	197.74
421.655	195.94
422.115	197.34
422.576	192.14
423.036	193.54
423.496	208.24
423.956	219.14
424.416	226.54
424.876	269.14
425.336	260.84
425.797	268.44
426.257	250.64
426.717	243.84
427.177	231.74
427.637	222.54
428.097	235.14
428.556	240.14
429.016	270.14
429.476	266.74
429.936	280.64
430.396	275.64
430.856	294.74
431.315	315.14
431.775	348.14
432.235	383.14
432.694	346.24
433.154	366.04
433.614	395.64
434.073	342.74
434.533	292.04
434.993	275.44
435.452	288.74
435.912	303.54
436.371	293.84
436.83	281.84
437.29	275.14
437.749	253.44
438.209	252.84
438.668	277.04
439.127	286.24
439.587	265.04
440.046	250.84
440.505	261.54
440.964	276.44
441.424	327.94
441.883	319.24
442.342	254.64
442.801	226.34
443.26	223.04
443.719	213.24
444.178	218.34
444.637	209.14
445.096	218.54
445.555	226.24
446.014	229.74
446.473	227.34
446.932	231.24
447.391	228.74
447.849	222.54
448.308	221.04
448.767	225.94
449.226	237.14
449.685	234.34
450.143	253.14
450.602	238.74
451.061	229.34
451.519	235.04
451.978	231.34
452.436	230.24
452.895	246.74
453.353	260.74
453.812	241.54
454.27	245.54
454.729	241.14
455.187	241.44
455.646	248.24
456.104	247.54
456.562	268.44
457.021	263.44
457.479	264.84
457.937	273.44
458.395	269.14
458.854	250.64
459.312	250.54
459.77	280.54
460.228	258.14
460.686	247.44
461.144	248.64
461.602	245.14
462.06	244.94
462.518	256.44
462.976	252.14
463.434	250.24
463.892	263.24
464.35	279.74
464.808	287.14
465.266	264.84
465.724	271.94
466.181	267.54
466.639	276.84
467.097	279.14
467.555	303.04
468.012	299.04
468.47	318.34
468.928	335.34
469.385	344.14
469.843	351.94
470.3	350.14
470.758	367.84
471.215	392.44
471.673	417.04
472.13	413.14
472.588	425.24
473.045	376.54
473.503	387.64
473.96	400.24
474.417	414.44
474.875	431.54
475.332	476.44
475.789	463.34
476.246	473.34
476.704	493.94
477.161	514.14
477.618	528.14
478.075	565.34
478.532	621.54
478.989	689.44
479.446	806.04
479.903	778.44
480.36	806.04
480.817	871.24
481.274	975.64
481.731	1079.74
482.188	1156.34
482.645	1298.94
483.102	1403.34
483.558	1541.84
484.015	1578.64
484.472	1555.14
484.929	1522.14
485.385	1459.54
485.842	1432.94
486.299	1361.84
486.755	1313.14
487.212	1097.04
487.668	923.04
488.125	854.24
488.582	772.94
489.038	749.94
489.494	713.84
489.951	694.54
490.407	670.54
490.864	656.44
491.32	646.14
491.776	655.14
492.233	660.34
492.689	615.54
493.145	608.24
493.602	602.24
494.058	619.44
494.514	625.04
494.97	649.54
495.426	650.94
495.882	631.44
496.338	613.44
496.794	632.64
497.251	632.04
497.707	640.84
498.163	649.34
498.618	650.84
499.074	651.74
499.53	678.14
499.986	680.04
500.442	657.34
500.898	626.44
501.354	631.94
501.809	638.24
502.265	653.24
502.721	669.14
503.177	681.74
503.632	674.44
504.088	676.84
504.543	714.54
504.999	716.64
505.455	664.84
505.91	638.44
506.366	623.94
506.821	627.84
507.277	620.84
507.732	634.74
508.187	627.04
508.643	637.14
509.098	642.94
509.553	654.24
510.009	665.44
510.464	674.14
510.919	688.64
511.375	691.64
511.83	710.44
512.285	721.64
512.74	775.34
513.195	789.44
513.65	772.74
514.105	764.84
514.56	777.74
515.015	801.04
515.47	805.44
515.925	791.14
516.38	788.84
516.835	796.24
517.29	788.34
517.745	787.84
518.2	775.94
518.655	759.84
519.109	747.44
519.564	741.14
520.019	738.54
520.474	724.54
520.928	729.74
521.383	727.34
521.838	715.74
522.292	718.64
522.747	713.14
523.201	715.74
523.656	690.74
524.11	693.34
524.565	692.64
525.019	700.14
525.474	702.04
525.928	709.84
526.382	706.84
526.837	698.94
527.291	704.94
527.745	696.24
528.2	697.14
528.654	698.74
529.108	694.04
529.562	693.64
530.016	701.24
530.47	696.44
530.925	702.24
531.379	711.04
531.833	709.34
532.287	705.04
532.741	706.44
533.195	701.34
533.649	716.14
534.103	723.24
534.556	721.44
535.01	717.34
535.464	714.14
535.918	724.34
536.372	722.14
536.826	727.94
537.279	705.94
537.733	707.94
538.187	721.44
538.64	720.74
539.094	727.44
539.548	735.34
540.001	726.34
540.455	726.14
540.908	737.74
541.362	735.54
541.815	745.64
542.269	757.54
542.722	764.14
543.175	773.44
543.629	779.84
544.082	787.74
544.536	798.74
544.989	788.14
545.442	795.64
545.895	791.94
546.349	788.84
546.802	798.04
547.255	795.84
547.708	808.14
548.161	816.14
548.614	828.64
549.067	828.44
549.52	822.74
549.973	816.24
550.426	812.04
550.879	808.54
551.332	801.04
551.785	809.54
552.238	825.84
552.691	826.24
553.144	834.14
553.596	852.44
554.049	864.04
554.502	905.04
554.955	914.54
555.407	911.44
555.86	905.24
556.313	895.14
556.765	884.84
557.218	887.34
557.67	888.64
558.123	881.44
558.576	878.94
559.028	876.34
559.48	888.24
559.933	879.64
560.385	840.24
560.838	808.94
561.29	791.24
561.742	780.54
562.195	769.34
562.647	764.54
563.099	773.34
563.551	772.84
564.004	790.34
564.456	785.54
564.908	769.44
565.36	751.24
565.812	751.74
566.264	739.04
566.716	729.04
567.168	715.94
567.62	725.44
568.072	706.94
568.524	696.34
568.976	694.74
569.428	675.24
569.88	681.74
570.332	690.14
570.784	684.24
571.235	697.04
571.687	697.24
572.139	709.14
572.59	715.14
573.042	708.64
573.494	710.04
573.945	697.54
574.397	693.84
574.849	693.34
575.3	694.54
575.752	686.04
576.203	685.54
576.655	686.34
577.106	669.64
577.557	671.14
578.009	675.34
578.46	675.64
578.912	658.64
579.363	656.24
579.814	666.34
580.265	680.64
580.717	674.04
581.168	676.44
581.619	677.44
582.07	676.84
582.521	668.94
582.972	670.44
583.423	690.34
583.875	682.44
584.326	707.44
584.777	744.04
585.227	812.54
585.678	896.94
586.129	983.34
586.58	1051.74
587.031	1128.04
587.482	1276.84
587.933	1441.44
588.384	1258.24
588.834	957.74
589.285	805.44
589.736	787.14
590.186	777.14
590.637	769.24
591.088	748.14
591.538	724.34
591.989	721.64
592.439	731.94
592.89	729.94
593.34	713.34
593.791	712.34
594.241	704.24
594.692	713.44
595.142	707.34
595.593	708.74
596.043	714.84
596.493	711.54
596.943	725.04
597.394	723.34
597.844	722.84
598.294	734.34
598.744	749.44
599.195	787.24
599.645	813.84
600.095	860.04
600.545	905.54
600.995	965.14
601.445	1032.04
601.895	1095.44
602.345	1138.44
602.795	1104.94
603.245	1065.04
603.695	1022.54
604.145	964.64
604.594	913.94
605.044	863.74
605.494	797.64
605.944	752.34
606.393	746.04
606.843	735.14
607.293	725.44
607.743	723.74
608.192	743.34
608.642	758.94
609.091	773.14
609.541	771.54
609.99	775.64
610.44	764.54
610.889	728.24
611.339	702.34
611.788	693.04
612.238	707.24
612.687	723.04
613.136	721.64
613.586	727.94
614.035	740.24
614.484	760.44
614.933	745.44
615.383	747.94
615.832	744.24
616.281	723.64
616.73	679.04
617.179	654.34
617.628	655.44
618.077	635.54
618.526	622.94
618.975	621.74
619.424	618.24
619.873	616.74
620.322	620.94
620.771	603.64
621.22	605.04
621.669	596.34
622.118	590.04
622.567	579.14
623.015	564.74
623.464	567.44
623.913	560.74
624.361	557.34
624.81	535.14
625.259	557.14
625.707	568.24
626.156	558.94
626.604	570.34
627.053	563.04
627.501	559.04
627.95	563.24
628.398	583.14
628.847	570.74
629.295	570.84
629.744	574.84
630.192	571.34
630.64	567.24
631.089	565.14
631.537	582.04
631.985	590.14
632.433	600.14
632.881	596.64
633.33	656.24
633.778	638.14
634.226	560.44
634.674	572.74
635.122	563.84
635.57	593.04
636.018	625.14
636.466	576.54
636.914	557.14
637.362	582.44
637.81	575.54
638.258	580.84
638.705	573.64
639.153	606.14
639.601	610.84
640.049	636.14
640.497	669.14
640.944	685.64
641.392	651.14
641.84	608.74
642.287	574.24
642.735	567.14
643.182	570.34
643.63	564.44
644.078	578.34
644.525	589.64
644.973	595.54
645.42	600.94
645.867	616.54
646.315	636.44
646.762	664.84
647.21	690.34
647.657	718.34
648.104	750.04
648.551	771.74
648.999	827.94
649.446	904.64
649.893	1008.74
650.34	1153.64
650.787	1372.84
651.234	1703.84
651.682	2226.24
652.129	3048.94
652.576	4395.54
653.023	6489.24
653.47	8860.34
653.917	11073.64
654.363	12760.44
654.81	14108.54
655.257	13403.64
655.704	8814.84
656.151	5216.04
656.598	3371.44
657.044	2401.64
657.491	1846.84
657.938	1465.14
658.385	1252.44
658.831	1071.64
659.278	958.44
659.724	859.84
660.171	778.14
660.618	714.14
661.064	680.74
661.511	664.64
661.957	647.74
662.404	650.44
662.85	649.34
663.296	622.34
663.743	564.04
664.189	536.64
664.635	532.44
665.082	530.64
665.528	531.64
665.974	515.44
666.42	511.74
666.867	496.14
667.313	486.14
667.759	481.04
668.205	474.44
668.651	483.04
669.097	477.24
669.543	490.04
669.989	465.34
670.435	444.24
670.881	438.74
671.327	439.24
671.773	467.64
672.219	478.94
672.665	545.74
673.11	577.54
673.556	625.94
674.002	658.24
674.448	656.74
674.893	550.34
675.339	478.24
675.785	434.54
676.23	416.34
676.676	391.84
677.122	375.14
677.567	368.24
678.013	369.54
678.458	368.94
678.904	364.04
679.349	347.94
679.794	353.64
680.24	351.84
680.685	352.04
681.131	339.74
681.576	352.34
682.021	350.94
682.466	349.54
682.912	344.84
683.357	351.94
683.802	382.74
684.247	414.84
684.692	453.74
685.137	492.34
685.583	524.84
686.028	562.64
686.473	512.04
686.918	445.14
687.363	411.14
687.807	393.84
688.252	374.34
688.697	350.84
689.142	338.54
689.587	331.34
690.032	324.54
690.477	342.24
690.921	352.64
691.366	381.64
691.811	401.04
692.255	429.34
692.7	459.24
693.145	505.14
693.589	698.94
694.034	1101.94
694.478	1523.84
694.923	1709.54
695.367	2251.04
695.812	1185.54
696.256	491.24
696.701	375.84
697.145	338.84
697.59	327.44
698.034	322.54
698.478	335.24
698.922	328.04
699.367	327.34
699.811	337.04
700.255	351.64
700.699	377.84
701.143	421.04
701.588	477.64
702.032	510.34
702.476	505.34
702.92	484.24
703.364	486.54
703.808	624.64
704.252	1020.04
704.696	1430.14
705.14	1657.14
705.584	2125.94
706.027	1043.44
706.471	515.74
706.915	398.64
707.359	347.44
707.803	321.14
708.246	303.94
708.69	305.14
709.134	307.44
709.577	312.54
710.021	310.44
710.465	314.44
710.908	296.04
711.352	290.44
711.795	308.34
712.239	350.74
712.682	384.44
713.126	416.74
713.569	463.64
714.012	371.64
714.456	317.14
714.899	292.34
715.342	277.24
715.786	273.14
716.229	256.84
716.672	251.04
717.115	247.04
717.558	248.24
718.002	255.44
718.445	257.64
718.888	280.94
719.331	295.84
719.774	297.64
720.217	305.94
720.66	281.34
721.103	264.74
721.546	251.74
721.989	253.34
722.432	232.84
722.874	237.94
723.317	233.14
723.76	232.44
724.203	251.54
724.645	310.64
725.088	442.84
725.531	564.44
725.974	632.64
726.416	540.74
726.859	301.64
727.301	240.34
727.744	239.04
728.187	233.74
728.629	230.54
729.071	240.24
729.514	259.84
729.956	264.64
730.399	278.44
730.841	284.54
731.283	273.84
731.726	267.74
732.168	258.04
732.61	272.34
733.053	276.24
733.495	309.24
733.937	351.64
734.379	390.64
734.821	427.24
735.263	539.64
735.705	812.84
736.148	1560.14
736.59	2547.54
737.032	3023.24
737.474	2452.04
737.916	797.74
738.357	425.74
738.799	327.94
739.241	297.64
739.683	278.44
740.125	287.64
740.567	300.04
741.008	312.14
741.45	316.34
741.892	312.04
742.334	345.34
742.775	356.34
743.217	340.34
743.658	274.34
744.1	256.34
744.542	256.34
744.983	311.94
745.425	345.94
745.866	342.84
746.307	278.74
746.749	277.54
747.19	318.34
747.632	454.14
748.073	857.54
748.514	1846.04
748.956	2820.94
749.397	3505.24
749.838	2945.04
750.279	2926.54
750.72	1473.04
751.162	543.84
751.603	315.64
752.044	247.84
752.485	220.74
752.926	204.34
753.367	201.04
753.808	196.64
754.249	191.74
754.69	185.44
755.131	172.84
755.572	180.34
756.013	176.84
756.453	180.54
756.894	184.74
757.335	187.74
757.776	186.94
758.216	191.04
758.657	197.14
759.098	198.84
759.538	228.94
759.979	263.64
760.42	374.74
760.86	699.24
761.301	1794.04
761.741	4346.24
762.182	6340.24
762.622	4447.14
763.063	1287.24
763.503	536.44
763.943	340.94
764.384	330.84
764.824	390.34
765.264	420.54
765.705	293.34
766.145	207.54
766.585	186.34
767.025	177.94
767.465	180.94
767.906	230.94
768.346	298.54
768.786	321.84
769.226	253.04
769.666	319.34
770.106	610.14
770.546	1538.04
770.986	2638.24
771.426	2331.04
771.866	785.64
772.306	316.34
772.745	207.94
773.185	175.74
773.625	172.74
774.065	165.44
774.505	193.04
774.944	293.14
775.384	640.34
775.824	1150.94
776.263	1117.64
776.703	475.54
777.142	212.84
777.582	154.34
778.021	137.34
778.461	138.84
778.9	145.94
779.34	132.84
779.779	119.74
780.219	110.34
780.658	109.54
781.097	112.54
781.537	110.74
781.976	108.54
782.415	102.64
782.855	109.84
783.294	106.64
783.733	104.84
784.172	107.14
784.611	103.34
785.05	116.54
785.489	116.54
785.928	116.94
786.367	135.14
786.806	123.24
787.245	129.64
787.684	135.44
788.123	151.74
788.562	132.04
789.001	125.44
789.44	119.74
789.879	113.94
790.317	116.04
790.756	130.04
791.195	131.54
791.634	146.74
792.072	195.34
792.511	360.04
792.95	982.44
793.388	2111.74
793.827	1920.74
794.265	666.54
794.704	263.84
795.142	181.94
795.581	148.04
796.019	135.74
796.458	125.54
796.896	115.34
797.334	124.74
797.773	151.44
798.211	216.64
798.649	436.24
799.087	1006.34
799.526	1572.04
799.964	1992.14
800.402	1990.34
800.84	747.34
801.278	298.84
801.716	189.24
802.154	145.64
802.592	151.74
803.03	137.34
803.468	137.44
803.906	143.74
804.344	152.64
804.782	138.64
805.22	132.14
805.658	138.94
806.096	145.84
806.533	162.74
806.971	174.14
807.409	218.74
807.847	312.34
808.284	648.74
808.722	1840.04
809.16	3250.94
809.597	3083.84
810.035	5335.24
810.472	5703.64
810.91	2060.44
811.347	786.24
811.785	402.64
812.222	254.14
812.66	193.14
813.097	164.24
813.535	140.44
813.972	129.24
814.409	123.94
814.846	106.34
815.284	111.14
815.721	102.04
816.158	104.14
816.595	120.14
817.032	175.74
817.47	191.84
817.907	166.44
818.344	142.94
818.781	122.44
819.218	100.24
819.655	124.54
820.092	183.14
820.529	209.24
820.966	183.74
821.403	133.74
821.839	101.24
822.276	100.34
822.713	121.14
823.15	141.54
823.587	119.34
824.023	147.34
824.46	292.94
824.897	880.54
825.333	1336.34
825.77	573.34
826.206	232.04
826.643	135.14
827.08	104.74
827.516	87.94
827.953	78.24
828.389	77.44
828.825	68.34
829.262	65.44
829.698	63.14
830.135	60.04
830.571	58.84
831.007	66.74
831.443	62.84
831.88	67.24
832.316	63.54
832.752	74.04
833.188	63.44
833.624	65.64
834.06	65.74
834.497	65.84
834.933	67.74
835.369	74.04
835.805	65.84
836.241	71.04
836.677	78.84
837.112	88.54
837.548	109.84
837.984	135.74
838.42	199.34
838.856	486.14
839.292	1486.54
839.727	2270.24
840.163	1060.34
840.599	917.24
841.034	1978.14
841.47	2071.24
841.906	764.24
842.341	329.34
842.777	223.44
843.212	303.34
843.648	296.04
844.083	143.54
844.519	101.54
844.954	79.34
845.39	56.84
845.825	53.64
846.261	57.44
846.696	55.64
847.131	61.14
847.566	60.24
848.002	53.34
848.437	60.94
848.872	58.84
849.307	56.14
849.742	82.64
850.177	179.04
850.613	549.54
851.048	884.44
851.483	379.14
851.918	155.64
852.353	85.84
852.788	56.64
853.223	54.34
853.657	58.04
854.092	51.34
854.527	35.94
854.962	45.04
855.397	46.34
855.832	50.94
856.266	43.74
856.701	41.74
857.136	35.64
857.57	42.64
858.005	48.54
858.44	54.14
858.874	46.34
859.309	48.54
859.743	41.54
860.178	46.44
860.612	45.74
861.047	53.44
861.481	64.94
861.915	67.54
862.35	46.44
862.784	32.14
863.218	35.94
863.653	35.24
864.087	41.74
864.521	54.04
864.955	74.24
865.39	164.94
865.824	180.34
866.258	114.94
866.692	165.14
867.126	180.34
867.56	102.54
867.994	59.54
868.428	37.44
868.862	46.54
869.296	51.74
869.73	60.84
870.164	53.74
870.598	42.84
871.031	34.64
871.465	37.74
871.899	32.94
872.333	21.24
872.766	24.04
873.2	24.94
873.634	29.44
874.067	26.94
874.501	24.34
874.935	40.44
875.368	32.14
875.802	29.64
876.235	24.14
876.669	21.64
877.102	21.94
877.535	18.54
877.969	21.54
878.402	23.34
878.836	23.44
879.269	32.94
879.702	21.64
880.135	19.94
880.569	26.54
881.002	27.64
881.435	22.14
881.868	14.74
882.301	24.54
882.734	19.54
883.167	19.94
883.601	15.94
884.034	17.04
884.467	17.44
884.899	15.54
885.332	17.94
885.765	14.14
886.198	17.54
886.631	15.54
887.064	17.84
887.497	26.64
887.929	27.54
888.362	17.14
888.795	9.14
889.228	14.34
889.66	21.74
890.093	20.84
890.526	17.94
890.958	16.64
891.391	12.94
891.823	25.64
892.256	12.64
892.688	16.64
893.121	16.74
893.553	17.84
893.985	22.04
894.418	20.44
894.85	12.14
895.282	16.74
895.715	20.14
896.147	20.64
896.579	16.74
897.011	14.14
897.444	16.64
897.876	10.54
898.308	14.54
898.74	16.44
899.172	13.84
899.604	24.24
900.036	18.44
900.468	15.34
900.9	12.54
901.332	16.44
901.764	13.64
902.196	20.04
902.628	15.54
903.06	14.44
903.491	33.64
903.923	24.34
904.355	23.74
904.787	28.14
905.218	12.74
905.65	18.54
906.082	9.44
906.513	9.44
906.945	24.64
907.376	14.74
907.808	17.54
908.239	20.14
908.671	15.74
909.102	22.64
909.534	21.04
909.965	49.84
910.397	94.14
910.828	310.14
911.259	471.44
911.691	209.84
912.122	105.54
912.553	52.14
912.984	30.64
913.415	23.84
913.847	23.14
914.278	21.14
914.709	17.14
915.14	19.84
915.571	14.04
916.002	14.74
916.433	18.04
916.864	14.24
917.295	17.64
917.726	21.14
918.157	10.74
918.587	28.84
919.018	21.74
919.449	22.44
919.88	25.04
920.311	29.14
920.741	52.04
921.172	170.44
921.603	154.74
922.033	75.94
922.464	45.84
922.895	21.54
923.325	17.94
923.756	15.14
924.186	18.54
924.617	26.14
925.047	42.74
925.478	52.64
925.908	48.04
926.338	21.24
926.769	24.34
927.199	18.44
927.629	14.34
928.06	11.44
928.49	11.74
928.92	14.34
929.35	9.64
929.78	11.84
930.21	8.54
930.641	11.04
931.071	1.04
931.501	5.94
931.931	2.94
932.361	11.84
932.791	-0.66
933.221	5.84
933.651	1.64
934.08	15.84
934.51	29.74
934.94	6.64
935.37	4.04
935.8	9.44
936.229	11.64
936.659	10.14
937.089	3.74
937.519	11.34
937.948	21.54
938.378	16.54
938.807	8.34
939.237	6.64
939.666	7.14
940.096	-6.16
940.525	-1.66
940.955	5.74
941.384	2.04
941.814	-5.76
942.243	-7.86
942.672	3.14
943.102	-2.66
943.531	-2.26
943.96	3.24
944.39	-0.86
944.819	1.84
945.248	3.64
945.677	-2.66
946.106	4.64
946.535	5.34
946.964	-3.26
947.393	4.14
947.822	-2.96
948.251	-3.36
948.68	1.54
949.109	2.74
949.538	2.94
949.967	1.34
950.396	3.44
950.825	1.64
951.254	0.34
951.682	-5.46
952.111	2.84
952.54	9.14
952.969	-8.26
953.397	-8.36
953.826	3.34
954.254	-2.26
954.683	4.14
955.112	-0.76
955.54	5.84
955.969	3.34
956.397	6.34
956.826	-4.76
957.254	7.24
957.682	8.44
958.111	5.34
958.539	-1.46
958.967	4.84
959.396	2.64
959.824	4.74
960.252	1.14
960.68	-6.96
961.109	-3.66
961.537	-4.16
961.965	2.04
962.393	6.54
962.821	0.34
963.249	3.34
963.677	5.04
964.105	2.54
964.533	45.44
964.961	39.04
965.389	19.94
965.817	7.64
966.245	0.74
966.672	-0.76
967.1	-4.26
967.528	-0.06
967.956	-1.16
968.383	1.94
968.811	2.14
969.239	0.04
969.666	-4.06
970.094	-3.96
970.522	5.94
970.949	-1.96
971.377	-6.96
971.804	1.24
972.232	-1.66
972.659	-0.66
973.087	-3.36
973.514	-2.26
973.941	-6.96
974.369	4.04
974.796	-1.86
975.223	-1.46
975.651	-2.56
976.078	4.44
976.505	-2.36
976.932	-1.26
977.359	16.84
977.786	12.34
978.214	-1.06
978.641	-2.76
979.068	-4.86
979.495	-4.46
979.922	-3.66
980.349	1.94
980.776	1.54
981.202	-0.06
981.629	7.94
982.056	0.74
982.483	-2.46
982.91	7.04
983.337	-0.96
983.763	2.94
984.19	-6.76
984.617	-8.06
985.043	-4.86
985.47	-2.36
985.897	-1.06
986.323	-3.96
986.75	1.84
987.176	-4.46
987.603	3.34
988.029	5.44
988.456	-3.96
988.882	7.34
989.308	-5.26
989.735	-4.26
990.161	-0.96
990.587	-6.06
991.014	-0.46
991.44	10.04
991.866	-0.16
992.292	-4.56
992.719	4.04
993.145	3.34
993.571	-10.16
993.997	0.14
994.423	-4.26
994.849	-3.36
995.275	1.84
995.701	2.44
996.127	-0.66
996.553	7.24
996.979	1.54
997.405	-1.46
997.83	-6.26
998.256	-7.86
998.682	-7.16
999.108	-10.56
999.534	-0.26
999.959	-4.96
1000.385	1.54
1000.811	0.04
1001.236	-10.86
1001.662	-8.86
1002.087	-6.86
1002.513	0.54
1002.938	4.04
1003.364	-1.66
1003.789	0.64
1004.215	6.44
1004.64	2.94
1005.066	-0.86
1005.491	1.84
1005.916	-4.46
1006.342	1.64
1006.767	-4.26
1007.192	7.54
1007.617	-1.46
1008.042	-5.36
1008.468	-7.36
1008.893	-8.46
1009.318	-1.06
1009.743	-3.26
1010.168	0.64
1010.593	-0.16
1011.018	-11.56
1011.443	-1.66
1011.868	4.34
1012.293	-3.46
1012.718	-4.46
1013.143	1.94
1013.567	-4.76
1013.992	0.24
1014.417	-10.66
1014.842	4.04
1015.267	0.24
1015.691	-3.76
1016.116	4.94
1016.541	-0.96
1016.965	2.84
1017.39	4.94
1017.814	5.74
1018.239	4.74
1018.663	-9.06
1019.088	-12.96
1019.512	-5.96
1019.937	-4.56
1020.361	-6.76
1020.785	-4.56
1021.21	-3.86
1021.634	-4.96
1022.058	5.64
1022.483	3.84
1022.907	1.54
1023.331	0.14
1023.755	-0.16
1024.179	-2.66
1024.604	-5.66
1025.028	-7.16
1025.452	-5.46
1025.876	-2.96
1026.3	0.24
1026.724	-8.86
1027.148	-5.06
1027.572	-5.56
1027.996	-7.36
1028.42	-2.96
1028.843	-2.26
1029.267	-8.26
1029.691	1.04
1030.115	-5.06
1030.539	-3.26
1030.962	-9.16
1031.386	-6.36
1031.81	1.74
1032.233	-0.96
1032.657	1.34
1033.08	-0.46
1033.504	-4.66
1033.927	-3.66
1034.351	-5.26
1034.774	-9.46
1035.198	-2.96
1035.621	-5.06
1036.045	-9.76
1036.468	-2.56
1036.891	-10.26
1037.315	-13.36
1037.738	-13.36
1038.161	2.24
1038.584	-10.16
1039.008	-5.46
1039.431	-6.36
1039.854	-0.66
1040.277	-12.96
1040.7	-17.56
1041.123	-2.06
1041.546	-3.36
1041.969	-6.36
1042.392	-7.06
1042.815	-3.86
1043.238	1.84
1043.661	2.54
1044.084	-7.36
1044.507	-11.16
1044.93	0.64
1045.352	-3.46
1045.775	1.84
1046.198	-3.56
1046.621	3.04
1047.043	-1.16
1047.466	9.14
1047.889	-4.56
1048.311	-3.66
1048.734	-5.26
1049.156	-1.26
1049.579	-6.76
1050.001	0.64
1050.424	-1.96
1050.846	-7.46
1051.269	-4.16
1051.691	-10.06
1052.113	-6.96
1052.536	-2.66
1052.958	-4.36
1053.38	-3.86
1053.802	-10.76
1054.225	-0.86
1054.647	-9.06
1055.069	-2.66
1055.491	3.74
1055.913	-5.66
1056.335	-1.96
1056.757	-3.46
1057.179	-6.76
1057.601	-5.56
1058.023	-6.86
1058.445	-0.06
1058.867	0.24
1059.289	-3.36
1059.711	-8.86
1060.133	-3.66
1060.555	-5.36
1060.976	-8.16
1061.398	-8.66
1061.82	-10.66
1062.241	-3.76
1062.663	-5.86
1063.085	2.24
1063.506	0.94
1063.928	-1.16
1064.35	1.04
1064.771	-9.26
1065.193	-3.46
1065.614	-14.36
1066.035	-2.36
1066.457	-2.36
1066.878	3.24
1067.3	-5.06
1067.721	-5.66
1068.142	-10.66
1068.564	-4.06
1068.985	-0.56
1069.406	-3.66
1069.827	-1.56
1070.248	-1.36
1070.67	-7.66
1071.091	-0.96
1071.512	-0.36
1071.933	-10.46
1072.354	-9.26
1072.775	-6.06
1073.196	-8.36
1073.617	-2.36
1074.038	-7.26
1074.459	-0.56
1074.88	-6.56
1075.3	1.54
1075.721	-4.36
1076.142	-0.56
1076.563	1.24
1076.983	-14.96
1077.404	-6.66
1077.825	-8.56
1078.246	-8.36
1078.666	-10.76
1079.087	-6.36
1079.507	-4.56
1079.928	2.84
1080.348	-1.36
1080.769	-6.36
1081.189	-3.56
1081.61	-8.36
1082.03	-13.66
1082.451	-4.26
1082.871	-3.06
1083.291	-12.66
1083.711	-7.66
1084.132	-11.76
1084.552	-6.16
1084.972	-3.76
1085.392	-8.76
1085.813	-8.66
1086.233	-6.06
1086.653	-3.26
1087.073	-6.06
1087.493	-8.06
1087.913	-5.36
1088.333	-6.76
1088.753	-7.36
1089.173	1.94
1089.593	-8.06
1090.013	-0.36
1090.433	-1.96
1090.852	-5.76
1091.272	-4.96
1091.692	1.94
1092.112	-5.16
1092.531	-8.36
1092.951	-6.86
1093.371	-5.16
1093.79	-1.56
1094.21	-6.76
1094.63	-0.06
1095.049	-7.96
1095.469	-6.86
1095.888	-0.86
1096.308	4.54
1096.727	6.84
1097.146	-2.16
1097.566	0.94
1097.985	-8.36
1098.405	-2.56
1098.824	-6.86
1099.243	-3.86
1099.662	-7.76
1100.082	-7.76
1100.501	-2.56
1100.92	-4.96
1101.339	-7.96
1101.758	-5.16
