Data from 20171114-ORNL-Ar_H_NY_Subt18_08-07-31-981.txt Node
Date: Tue Nov 14 08:07:31 EST 2017
User: Ender
Spectrometer: HR+D1039
Trigger mode: 0
Integration Time (sec): 2.730000E-2
Scans to average: 10
Electric dark correction enabled: true
Nonlinearity correction enabled: false
Boxcar width: 0
XAxis mode: Wavelengths
Number of Pixels in Spectrum: 2048
>>>>>Begin Spectral Data<<<<<
187.836	-1.26
188.309	-1.26
188.782	-1.26
189.255	4.64
189.728	-3.16
190.201	6.24
190.674	0.04
191.147	3.84
191.619	-8.36
192.092	2.24
192.565	-3.46
193.038	0.84
193.511	1.74
193.984	-1.86
194.456	-6.46
194.929	0.54
195.402	5.24
195.874	-0.76
196.347	-2.06
196.82	-0.86
197.292	4.24
197.765	-0.86
198.237	-2.46
198.71	5.24
199.182	-2.86
199.655	0.84
200.127	4.64
200.6	-5.56
201.072	-2.56
201.544	-4.86
202.017	-4.86
202.489	9.24
202.961	1.84
203.433	0.94
203.906	-1.26
204.378	-4.26
204.85	-6.46
205.322	-4.66
205.794	-0.36
206.266	-4.86
206.739	-6.56
207.211	1.44
207.683	-7.66
208.155	-8.66
208.627	-9.16
209.099	-1.56
209.57	-5.46
210.042	-3.86
210.514	-3.16
210.986	-1.76
211.458	-12.46
211.93	-1.96
212.402	-3.96
212.873	-1.06
213.345	-6.26
213.817	-7.96
214.288	1.24
214.76	-15.56
215.232	-1.56
215.703	-9.26
216.175	-4.96
216.646	-2.26
217.118	-5.36
217.589	-6.46
218.061	-3.76
218.532	-7.96
219.004	-0.76
219.475	-6.26
219.946	-9.36
220.418	-6.36
220.889	-1.26
221.36	1.84
221.832	-8.46
222.303	-6.16
222.774	0.84
223.245	-6.46
223.717	-4.26
224.188	-0.16
224.659	-3.96
225.13	-5.56
225.601	3.64
226.072	-4.76
226.543	-4.76
227.014	-0.86
227.485	1.64
227.956	-8.06
228.427	-5.76
228.898	3.64
229.369	3.54
229.839	-6.86
230.31	-12.16
230.781	-3.46
231.252	-3.86
231.722	-12.56
232.193	-0.76
232.664	-2.46
233.135	-1.16
233.605	0.94
234.076	-6.56
234.546	0.14
235.017	6.64
235.487	2.14
235.958	-4.16
236.428	-10.46
236.899	2.24
237.369	0.14
237.84	-6.76
238.31	8.24
238.78	-4.66
239.251	-0.16
239.721	-3.76
240.191	-3.46
240.662	-4.96
241.132	-6.06
241.602	1.94
242.072	2.74
242.542	5.34
243.013	-3.16
243.483	3.14
243.953	-5.46
244.423	1.14
244.893	-1.66
245.363	-1.96
245.833	3.44
246.303	-0.76
246.773	10.94
247.243	-0.06
247.712	4.34
248.182	8.04
248.652	4.04
249.122	-0.46
249.592	5.04
250.061	15.74
250.531	24.74
251.001	9.84
251.471	15.84
251.94	15.14
252.41	4.64
252.879	-3.86
253.349	9.34
253.818	4.74
254.288	-0.16
254.757	2.24
255.227	1.04
255.696	-1.06
256.166	5.54
256.635	3.24
257.105	5.64
257.574	7.54
258.043	3.74
258.513	7.24
258.982	7.24
259.451	6.24
259.92	10.64
260.389	4.64
260.859	7.84
261.328	7.74
261.797	11.24
262.266	-0.46
262.735	7.64
263.204	4.14
263.673	0.44
264.142	-0.16
264.611	-2.86
265.08	-5.66
265.549	0.14
266.018	4.94
266.487	-7.26
266.955	-3.26
267.424	-2.36
267.893	2.24
268.362	-2.96
268.83	1.34
269.299	5.54
269.768	8.14
270.236	1.34
270.705	-4.96
271.174	6.84
271.642	2.94
272.111	8.54
272.579	16.34
273.048	22.04
273.516	22.34
273.985	29.04
274.453	21.14
274.922	17.34
275.39	11.04
275.858	3.64
276.327	15.14
276.795	12.64
277.263	9.04
277.731	23.64
278.2	38.34
278.668	47.24
279.136	41.94
279.604	6.84
280.072	14.14
280.54	8.64
281.008	9.94
281.477	11.04
281.945	6.84
282.413	4.64
282.881	7.74
283.348	-0.66
283.816	6.04
284.284	7.74
284.752	16.24
285.22	9.14
285.688	13.84
286.156	12.94
286.623	37.04
287.091	39.64
287.559	25.44
288.026	12.34
288.494	6.94
288.962	4.24
289.429	10.84
289.897	17.24
290.364	10.94
290.832	9.74
291.3	13.34
291.767	11.74
292.234	14.34
292.702	3.54
293.169	19.14
293.637	11.64
294.104	17.44
294.571	6.94
295.039	14.54
295.506	11.94
295.973	12.54
296.44	8.44
296.908	13.44
297.375	15.84
297.842	14.84
298.309	10.14
298.776	5.04
299.243	15.14
299.71	8.14
300.177	12.94
300.644	17.14
301.111	17.34
301.578	20.04
302.045	13.14
302.512	17.44
302.979	22.64
303.446	22.14
303.913	10.84
304.379	14.84
304.846	26.34
305.313	21.44
305.78	16.64
306.246	21.14
306.713	23.14
307.18	18.24
307.646	20.84
308.113	21.94
308.579	17.94
309.046	19.24
309.512	21.34
309.979	20.84
310.445	24.04
310.912	26.94
311.378	25.74
311.845	19.04
312.311	25.24
312.777	31.04
313.244	24.74
313.71	28.94
314.176	24.94
314.642	19.34
315.109	20.44
315.575	24.44
316.041	28.44
316.507	21.44
316.973	34.54
317.439	27.44
317.905	31.34
318.371	27.54
318.837	27.44
319.303	29.44
319.769	30.84
320.235	27.24
320.701	27.44
321.167	29.14
321.633	28.04
322.099	26.84
322.564	36.64
323.03	33.94
323.496	28.64
323.962	35.94
324.427	26.74
324.893	30.84
325.359	28.74
325.824	34.54
326.29	29.24
326.755	33.24
327.221	32.04
327.686	34.04
328.152	37.04
328.617	35.34
329.083	37.64
329.548	41.74
330.014	33.44
330.479	29.34
330.944	39.04
331.41	31.54
331.875	39.74
332.34	30.94
332.805	32.14
333.271	38.54
333.736	40.14
334.201	43.94
334.666	45.34
335.131	45.94
335.596	40.74
336.061	38.94
336.526	33.44
336.991	45.14
337.456	48.14
337.921	46.44
338.386	38.84
338.851	44.34
339.316	39.74
339.781	34.24
340.246	43.54
340.711	35.14
341.175	39.04
341.64	31.44
342.105	38.14
342.569	45.44
343.034	46.94
343.499	52.34
343.963	40.34
344.428	55.24
344.893	53.54
345.357	54.24
345.822	53.44
346.286	60.84
346.751	61.24
347.215	58.44
347.679	56.64
348.144	73.34
348.608	69.34
349.073	60.04
349.537	66.54
350.001	65.64
350.465	64.54
350.93	69.14
351.394	72.84
351.858	56.54
352.322	72.74
352.786	70.84
353.25	78.24
353.715	87.34
354.179	82.04
354.643	102.84
355.107	99.54
355.571	87.54
356.035	88.64
356.498	98.14
356.962	109.84
357.426	109.04
357.89	98.64
358.354	68.54
358.818	70.14
359.281	67.44
359.745	65.34
360.209	68.04
360.673	60.54
361.136	66.44
361.6	63.64
362.064	75.04
362.527	72.24
362.991	78.94
363.454	63.74
363.918	66.84
364.381	71.64
364.845	65.94
365.308	72.04
365.772	68.94
366.235	70.24
366.698	76.84
367.162	68.74
367.625	72.94
368.088	79.94
368.552	80.44
369.015	81.64
369.478	85.94
369.941	85.54
370.404	83.24
370.867	88.64
371.331	99.84
371.794	95.84
372.257	101.74
372.72	104.94
373.183	100.24
373.646	88.04
374.109	88.94
374.572	88.84
375.035	93.34
375.497	96.04
375.96	91.94
376.423	89.94
376.886	94.64
377.349	100.24
377.811	85.44
378.274	88.44
378.737	93.04
379.199	96.34
379.662	102.54
380.125	104.14
380.587	105.94
381.05	111.14
381.512	109.64
381.975	116.94
382.437	116.54
382.9	109.34
383.362	117.24
383.825	126.94
384.287	127.34
384.75	130.84
385.212	128.04
385.674	122.04
386.136	127.04
386.599	113.14
387.061	111.14
387.523	112.54
387.985	122.14
388.447	128.84
388.91	135.94
389.372	147.14
389.834	144.64
390.296	137.44
390.758	141.24
391.22	148.44
391.682	183.34
392.144	272.64
392.606	212.04
393.068	153.84
393.529	159.04
393.991	136.04
394.453	132.74
394.915	150.14
395.377	178.44
395.838	191.64
396.3	140.44
396.762	127.44
397.224	123.44
397.685	119.34
398.147	117.74
398.608	115.84
399.07	119.84
399.531	126.14
399.993	132.44
400.454	141.94
400.916	136.94
401.377	133.84
401.839	141.24
402.3	142.44
402.762	148.54
403.223	166.04
403.684	155.34
404.145	140.14
404.607	144.94
405.068	155.34
405.529	155.04
405.99	176.74
406.451	159.54
406.913	161.94
407.374	146.84
407.835	153.14
408.296	161.64
408.757	161.54
409.218	168.34
409.679	163.74
410.14	160.74
410.601	163.74
411.062	170.94
411.522	180.44
411.983	174.54
412.444	160.34
412.905	165.14
413.366	170.14
413.826	181.54
414.287	195.64
414.748	244.74
415.208	227.44
415.669	196.64
416.13	189.94
416.59	186.84
417.051	197.44
417.511	202.84
417.972	219.04
418.432	226.64
418.893	270.14
419.353	229.04
419.814	185.04
420.274	169.94
420.734	169.64
421.195	190.44
421.655	184.24
422.115	181.54
422.576	189.84
423.036	187.84
423.496	187.84
423.956	203.54
424.416	209.94
424.876	244.94
425.336	235.74
425.797	248.44
426.257	236.54
426.717	225.94
427.177	226.44
427.637	206.04
428.097	217.24
428.556	225.44
429.016	252.74
429.476	253.34
429.936	255.44
430.396	273.04
430.856	269.04
431.315	297.74
431.775	321.34
432.235	356.74
432.694	332.04
433.154	336.34
433.614	367.74
434.073	314.24
434.533	270.44
434.993	249.54
435.452	271.94
435.912	271.64
436.371	266.14
436.83	267.74
437.29	258.84
437.749	225.54
438.209	234.54
438.668	253.34
439.127	266.54
439.587	240.44
440.046	232.04
440.505	252.34
440.964	254.94
441.424	297.04
441.883	288.84
442.342	242.14
442.801	217.44
443.26	207.84
443.719	209.84
444.178	204.24
444.637	203.94
445.096	208.24
445.555	212.24
446.014	212.44
446.473	216.74
446.932	221.74
447.391	211.54
447.849	217.14
448.308	204.54
448.767	216.34
449.226	227.44
449.685	230.14
450.143	230.44
450.602	220.14
451.061	222.14
451.519	217.14
451.978	221.04
452.436	219.54
452.895	225.14
453.353	241.24
453.812	227.14
454.27	223.44
454.729	227.84
455.187	227.04
455.646	231.84
456.104	232.44
456.562	245.74
457.021	251.54
457.479	249.14
457.937	261.14
458.395	246.04
458.854	237.84
459.312	250.94
459.77	259.24
460.228	242.34
460.686	228.34
461.144	236.04
461.602	229.94
462.06	228.84
462.518	238.74
462.976	248.04
463.434	248.84
463.892	240.94
464.35	263.14
464.808	276.24
465.266	254.24
465.724	251.24
466.181	263.24
466.639	261.84
467.097	274.04
467.555	285.54
468.012	290.14
468.47	293.04
468.928	314.74
469.385	331.24
469.843	330.34
470.3	328.14
470.758	345.74
471.215	373.14
471.673	390.34
472.13	390.84
472.588	400.44
473.045	358.14
473.503	366.54
473.96	381.54
474.417	387.24
474.875	415.14
475.332	453.24
475.789	435.54
476.246	443.64
476.704	472.34
477.161	481.34
477.618	508.94
478.075	539.24
478.532	590.44
478.989	653.44
479.446	770.74
479.903	741.94
480.36	779.24
480.817	830.94
481.274	921.34
481.731	1029.14
482.188	1118.74
482.645	1245.64
483.102	1340.84
483.558	1487.04
484.015	1531.14
484.472	1512.54
484.929	1468.64
485.385	1407.14
485.842	1370.24
486.299	1305.04
486.755	1241.74
487.212	1043.74
487.668	890.04
488.125	814.34
488.582	743.04
489.038	714.14
489.494	680.14
489.951	658.44
490.407	637.74
490.864	617.84
491.32	616.94
491.776	619.94
492.233	619.94
492.689	579.94
493.145	575.64
493.602	574.24
494.058	588.34
494.514	588.04
494.97	623.64
495.426	618.94
495.882	609.44
496.338	583.34
496.794	600.04
497.251	595.24
497.707	600.94
498.163	607.64
498.618	612.74
499.074	622.94
499.53	649.04
499.986	652.34
500.442	628.04
500.898	612.24
501.354	598.94
501.809	613.84
502.265	621.24
502.721	642.04
503.177	647.34
503.632	642.84
504.088	655.84
504.543	678.34
504.999	684.04
505.455	635.64
505.91	606.04
506.366	615.64
506.821	599.44
507.277	602.44
507.732	604.84
508.187	600.44
508.643	604.94
509.098	619.14
509.553	632.04
510.009	642.44
510.464	649.74
510.919	668.24
511.375	672.34
511.83	682.84
512.285	703.94
512.74	730.14
513.195	757.44
513.65	749.34
514.105	741.14
514.56	746.74
515.015	770.14
515.47	775.94
515.925	763.64
516.38	758.84
516.835	761.34
517.29	752.14
517.745	754.54
518.2	746.04
518.655	726.14
519.109	721.84
519.564	722.44
520.019	711.14
520.474	703.04
520.928	703.54
521.383	696.34
521.838	683.44
522.292	687.24
522.747	682.44
523.201	677.04
523.656	683.54
524.11	677.54
524.565	683.94
525.019	669.84
525.474	680.04
525.928	680.44
526.382	675.74
526.837	681.84
527.291	677.04
527.745	672.64
528.2	672.04
528.654	664.94
529.108	666.44
529.562	676.14
530.016	657.94
530.47	668.84
530.925	663.94
531.379	678.54
531.833	683.14
532.287	685.64
532.741	680.84
533.195	681.64
533.649	684.44
534.103	696.14
534.556	675.54
535.01	692.04
535.464	683.84
535.918	698.34
536.372	693.14
536.826	697.44
537.279	683.74
537.733	692.04
538.187	693.74
538.64	702.54
539.094	702.54
539.548	711.04
540.001	705.14
540.455	705.44
540.908	706.04
541.362	721.94
541.815	720.24
542.269	730.44
542.722	747.64
543.175	754.84
543.629	748.04
544.082	775.54
544.536	759.14
544.989	764.54
545.442	773.64
545.895	765.64
546.349	765.04
546.802	765.44
547.255	770.14
547.708	784.04
548.161	800.04
548.614	794.74
549.067	805.64
549.52	797.34
549.973	785.54
550.426	788.94
550.879	770.84
551.332	771.64
551.785	781.54
552.238	790.64
552.691	803.84
553.144	804.84
553.596	823.04
554.049	840.54
554.502	870.54
554.955	887.94
555.407	880.34
555.86	875.34
556.313	874.74
556.765	859.94
557.218	849.74
557.67	860.44
558.123	844.24
558.576	846.24
559.028	858.34
559.48	855.34
559.933	861.64
560.385	815.94
560.838	786.84
561.29	775.44
561.742	761.84
562.195	746.14
562.647	743.94
563.099	750.34
563.551	748.74
564.004	763.94
564.456	744.44
564.908	748.24
565.36	733.74
565.812	719.64
566.264	713.44
566.716	710.74
567.168	697.84
567.62	698.04
568.072	684.44
568.524	679.84
568.976	674.44
569.428	663.04
569.88	660.34
570.332	674.24
570.784	670.54
571.235	666.24
571.687	677.44
572.139	693.04
572.59	700.14
573.042	690.44
573.494	699.24
573.945	691.54
574.397	668.54
574.849	672.14
575.3	686.14
575.752	663.94
576.203	668.64
576.655	666.44
577.106	654.34
577.557	653.44
578.009	653.94
578.46	647.64
578.912	642.54
579.363	656.34
579.814	647.94
580.265	643.94
580.717	639.74
581.168	661.74
581.619	667.64
582.07	659.54
582.521	664.24
582.972	657.84
583.423	663.54
583.875	671.34
584.326	693.54
584.777	729.54
585.227	816.54
585.678	904.84
586.129	978.34
586.58	1069.84
587.031	1134.14
587.482	1290.54
587.933	1471.84
588.384	1283.44
588.834	957.34
589.285	786.44
589.736	767.04
590.186	763.44
590.637	763.54
591.088	722.84
591.538	721.64
591.989	723.84
592.439	713.74
592.89	708.44
593.34	693.14
593.791	699.14
594.241	700.84
594.692	702.64
595.142	690.24
595.593	687.84
596.043	689.34
596.493	699.04
596.943	694.14
597.394	709.54
597.844	698.14
598.294	715.74
598.744	734.34
599.195	764.04
599.645	803.04
600.095	847.64
600.545	904.44
600.995	951.24
601.445	1009.54
601.895	1064.84
602.345	1123.04
602.795	1087.64
603.245	1047.44
603.695	990.84
604.145	935.64
604.594	889.34
605.044	843.54
605.494	784.04
605.944	739.34
606.393	738.44
606.843	710.04
607.293	719.34
607.743	718.74
608.192	729.84
608.642	752.34
609.091	757.34
609.541	757.14
609.99	755.44
610.44	750.24
610.889	706.24
611.339	701.14
611.788	681.24
612.238	682.14
612.687	710.54
613.136	709.14
613.586	733.44
614.035	726.44
614.484	743.64
614.933	751.04
615.383	738.74
615.832	734.94
616.281	721.14
616.73	667.64
617.179	658.94
617.628	640.84
618.077	623.44
618.526	608.44
618.975	605.54
619.424	604.74
619.873	608.74
620.322	619.34
620.771	597.64
621.22	591.84
621.669	585.54
622.118	587.04
622.567	578.64
623.015	553.14
623.464	557.74
623.913	545.94
624.361	533.04
624.81	536.14
625.259	540.84
625.707	548.94
626.156	546.74
626.604	569.04
627.053	558.94
627.501	561.34
627.95	559.04
628.398	569.44
628.847	558.94
629.295	565.54
629.744	567.54
630.192	559.64
630.64	553.34
631.089	557.44
631.537	579.84
631.985	582.24
632.433	592.14
632.881	603.94
633.33	653.54
633.778	634.54
634.226	555.34
634.674	563.04
635.122	572.74
635.57	585.04
636.018	615.74
636.466	578.74
636.914	544.44
637.362	560.34
637.81	564.84
638.258	573.14
638.705	567.54
639.153	603.74
639.601	608.74
640.049	633.54
640.497	662.44
640.944	682.64
641.392	633.94
641.84	611.54
642.287	580.44
642.735	562.64
643.182	559.84
643.63	573.54
644.078	562.04
644.525	582.74
644.973	588.54
645.42	590.64
645.867	613.84
646.315	623.64
646.762	652.24
647.21	689.84
647.657	709.04
648.104	736.74
648.551	758.24
648.999	835.04
649.446	911.14
649.893	1000.34
650.34	1155.54
650.787	1380.24
651.234	1710.54
651.682	2239.64
652.129	3077.24
652.576	4456.94
653.023	6573.64
653.47	8979.04
653.917	11180.34
654.363	12856.34
654.81	14176.74
655.257	13443.74
655.704	8810.64
656.151	5218.84
656.598	3370.34
657.044	2392.04
657.491	1834.84
657.938	1475.04
658.385	1222.24
658.831	1066.74
659.278	950.84
659.724	840.24
660.171	776.64
660.618	712.34
661.064	680.54
661.511	650.94
661.957	643.44
662.404	634.74
662.85	640.54
663.296	606.34
663.743	554.94
664.189	539.84
664.635	522.24
665.082	510.84
665.528	514.84
665.974	507.84
666.42	502.74
666.867	508.34
667.313	485.74
667.759	479.24
668.205	481.74
668.651	483.24
669.097	489.94
669.543	500.34
669.989	465.44
670.435	441.74
670.881	440.64
671.327	435.94
671.773	456.74
672.219	487.24
672.665	533.14
673.11	573.94
673.556	615.64
674.002	654.44
674.448	634.54
674.893	538.14
675.339	469.34
675.785	432.04
676.23	413.94
676.676	382.34
677.122	378.64
677.567	367.34
678.013	372.54
678.458	357.54
678.904	353.64
679.349	342.54
679.794	345.24
680.24	353.24
680.685	342.64
681.131	341.44
681.576	347.74
682.021	348.84
682.466	347.34
682.912	345.24
683.357	354.24
683.802	376.54
684.247	408.94
684.692	435.94
685.137	488.34
685.583	525.14
686.028	551.14
686.473	509.54
686.918	441.04
687.363	407.94
687.807	386.14
688.252	357.64
688.697	345.84
689.142	334.14
689.587	322.94
690.032	326.64
690.477	339.54
690.921	344.84
691.366	375.14
691.811	398.34
692.255	428.44
692.7	467.04
693.145	503.24
693.589	678.94
694.034	1125.94
694.478	1518.04
694.923	1701.24
695.367	2220.94
695.812	1163.04
696.256	483.44
696.701	369.84
697.145	340.04
697.59	326.04
698.034	326.94
698.478	320.44
698.922	321.54
699.367	326.04
699.811	339.14
700.255	347.14
700.699	380.54
701.143	429.24
701.588	468.24
702.032	513.74
702.476	504.94
702.92	488.64
703.364	482.94
703.808	642.14
704.252	1029.44
704.696	1438.84
705.14	1650.74
705.584	2089.94
706.027	1038.44
706.471	522.04
706.915	391.34
707.359	351.94
707.803	319.14
708.246	306.54
708.69	314.94
709.134	316.24
709.577	304.34
710.021	310.24
710.465	302.64
710.908	302.24
711.352	294.94
711.795	309.44
712.239	347.14
712.682	382.54
713.126	419.74
713.569	456.24
714.012	362.54
714.456	319.34
714.899	294.94
715.342	268.74
715.786	261.44
716.229	253.24
716.672	251.54
717.115	238.74
717.558	251.04
718.002	255.24
718.445	261.64
718.888	284.34
719.331	293.14
719.774	307.64
720.217	298.44
720.66	281.24
721.103	261.64
721.546	251.74
721.989	250.44
722.432	234.84
722.874	237.24
723.317	229.54
723.76	240.84
724.203	262.94
724.645	319.64
725.088	450.24
725.531	570.34
725.974	633.94
726.416	542.44
726.859	300.84
727.301	246.14
727.744	238.54
728.187	238.74
728.629	231.24
729.071	229.24
729.514	254.04
729.956	271.24
730.399	282.34
730.841	281.44
731.283	273.14
731.726	262.74
732.168	247.04
732.61	259.64
733.053	275.54
733.495	315.14
733.937	347.74
734.379	394.84
734.821	435.54
735.263	536.74
735.705	828.54
736.148	1577.54
736.59	2546.64
737.032	2976.44
737.474	2428.04
737.916	792.94
738.357	426.24
738.799	321.74
739.241	295.14
739.683	292.94
740.125	284.84
740.567	293.44
741.008	307.94
741.45	311.24
741.892	312.24
742.334	342.34
742.775	350.24
743.217	340.94
743.658	269.54
744.1	247.94
744.542	247.64
744.983	303.44
745.425	335.64
745.866	339.54
746.307	278.04
746.749	277.74
747.19	322.34
747.632	454.64
748.073	886.54
748.514	1868.94
748.956	2797.24
749.397	3526.44
749.838	2918.54
750.279	2906.44
750.72	1460.34
751.162	536.04
751.603	323.44
752.044	247.34
752.485	218.64
752.926	206.44
753.367	200.94
753.808	185.74
754.249	187.14
754.69	188.04
755.131	176.14
755.572	183.74
756.013	174.54
756.453	181.44
756.894	185.14
757.335	187.44
757.776	191.54
758.216	193.24
758.657	198.54
759.098	201.54
759.538	233.04
759.979	257.64
760.42	377.54
760.86	715.04
761.301	1850.84
761.741	4390.44
762.182	6292.34
762.622	4389.04
763.063	1288.74
763.503	527.54
763.943	335.04
764.384	334.74
764.824	397.54
765.264	426.74
765.705	293.64
766.145	214.34
766.585	186.04
767.025	181.74
767.465	188.44
767.906	236.24
768.346	313.64
768.786	330.24
769.226	258.94
769.666	319.04
770.106	640.14
770.546	1565.54
770.986	2606.34
771.426	2304.14
771.866	774.24
772.306	321.24
772.745	209.64
773.185	175.44
773.625	169.04
774.065	166.44
774.505	198.14
774.944	311.74
775.384	684.24
775.824	1210.64
776.263	1167.44
776.703	499.34
777.142	222.14
777.582	155.14
778.021	138.94
778.461	139.34
778.9	141.04
779.34	130.74
779.779	118.04
780.219	115.84
780.658	107.64
781.097	108.44
781.537	114.34
781.976	111.34
782.415	106.24
782.855	104.94
783.294	99.64
783.733	105.64
784.172	111.44
784.611	96.64
785.05	113.24
785.489	104.84
785.928	116.14
786.367	123.24
786.806	118.34
787.245	131.94
787.684	134.54
788.123	144.74
788.562	132.24
789.001	131.74
789.44	119.34
789.879	121.04
790.317	116.34
790.756	131.04
791.195	127.44
791.634	144.44
792.072	205.54
792.511	362.04
792.95	1015.64
793.388	2099.54
793.827	1884.04
794.265	661.34
794.704	278.84
795.142	179.24
795.581	151.64
796.019	134.74
796.458	130.84
796.896	125.34
797.334	132.14
797.773	157.64
798.211	220.54
798.649	440.54
799.087	1006.04
799.526	1581.44
799.964	1998.44
800.402	1954.24
800.84	742.84
801.278	300.54
801.716	186.44
802.154	149.24
802.592	143.24
803.03	137.64
803.468	131.64
803.906	138.04
804.344	149.54
804.782	141.74
805.22	133.04
805.658	131.94
806.096	149.64
806.533	160.84
806.971	173.84
807.409	213.84
807.847	320.24
808.284	667.54
808.722	1855.54
809.16	3228.34
809.597	3118.54
810.035	5361.54
810.472	5617.44
810.91	2036.44
811.347	785.94
811.785	392.74
812.222	249.14
812.66	196.74
813.097	160.94
813.535	143.04
813.972	124.94
814.409	117.64
814.846	105.34
815.284	107.24
815.721	106.64
816.158	99.14
816.595	117.44
817.032	177.44
817.47	189.84
817.907	160.24
818.344	156.74
818.781	118.34
819.218	99.64
819.655	122.84
820.092	182.94
820.529	205.64
820.966	170.84
821.403	130.74
821.839	106.14
822.276	103.14
822.713	126.14
823.15	137.04
823.587	119.14
824.023	152.54
824.46	300.94
824.897	897.44
825.333	1321.84
825.77	564.94
826.206	231.54
826.643	138.24
827.08	101.94
827.516	87.54
827.953	76.84
828.389	83.74
828.825	72.74
829.262	64.54
829.698	58.84
830.135	65.44
830.571	60.44
831.007	68.24
831.443	63.14
831.88	66.04
832.316	67.94
832.752	59.84
833.188	66.54
833.624	61.74
834.06	67.84
834.497	69.84
834.933	74.94
835.369	70.64
835.805	63.14
836.241	80.94
836.677	84.44
837.112	89.64
837.548	102.44
837.984	135.94
838.42	204.34
838.856	506.74
839.292	1508.54
839.727	2250.44
840.163	1050.04
840.599	929.14
841.034	2014.14
841.47	2080.04
841.906	767.84
842.341	331.14
842.777	230.54
843.212	319.74
843.648	304.44
844.083	147.24
844.519	91.64
844.954	80.14
845.39	59.64
845.825	58.54
846.261	55.64
846.696	58.84
847.131	44.24
847.566	60.64
848.002	52.24
848.437	47.84
848.872	59.24
849.307	58.94
849.742	85.64
850.177	171.44
850.613	556.54
851.048	859.64
851.483	361.34
851.918	149.54
852.353	88.54
852.788	60.74
853.223	53.34
853.657	53.54
854.092	46.24
854.527	42.74
854.962	39.94
855.397	46.34
855.832	51.14
856.266	41.34
856.701	38.84
857.136	33.84
857.57	34.54
858.005	44.14
858.44	57.04
858.874	42.84
859.309	57.64
859.743	44.44
860.178	42.44
860.612	37.34
861.047	48.64
861.481	68.84
861.915	66.04
862.35	54.34
862.784	30.04
863.218	35.14
863.653	32.54
864.087	42.04
864.521	50.74
864.955	68.04
865.39	161.04
865.824	172.34
866.258	113.14
866.692	158.44
867.126	171.84
867.56	103.24
867.994	50.94
868.428	41.24
868.862	40.74
869.296	58.84
869.73	53.64
870.164	51.24
870.598	40.94
871.031	40.74
871.465	32.04
871.899	32.04
872.333	27.34
872.766	29.74
873.2	21.74
873.634	30.24
874.067	32.64
874.501	26.14
874.935	38.44
875.368	26.64
875.802	26.14
876.235	25.74
876.669	22.84
877.102	21.44
877.535	28.74
877.969	24.04
878.402	21.74
878.836	21.84
879.269	25.64
879.702	23.24
880.135	19.24
880.569	22.04
881.002	29.44
881.435	24.94
881.868	15.44
882.301	19.44
882.734	13.94
883.167	21.44
883.601	18.34
884.034	19.14
884.467	12.84
884.899	19.64
885.332	12.64
885.765	18.84
886.198	16.94
886.631	19.24
887.064	20.54
887.497	21.24
887.929	21.84
888.362	11.04
888.795	16.04
889.228	24.04
889.66	23.94
890.093	16.44
890.526	16.54
890.958	17.44
891.391	16.94
891.823	19.54
892.256	15.14
892.688	14.74
893.121	14.24
893.553	15.24
893.985	24.14
894.418	20.44
894.85	14.74
895.282	19.24
895.715	21.14
896.147	19.54
896.579	21.24
897.011	13.44
897.444	20.44
897.876	10.44
898.308	21.54
898.74	12.04
899.172	17.94
899.604	25.54
900.036	21.04
900.468	17.24
900.9	6.34
901.332	15.24
901.764	10.64
902.196	20.64
902.628	19.64
903.06	18.74
903.491	26.34
903.923	18.94
904.355	26.44
904.787	18.44
905.218	21.44
905.65	19.74
906.082	13.34
906.513	6.34
906.945	16.54
907.376	13.74
907.808	18.74
908.239	21.94
908.671	20.24
909.102	21.14
909.534	26.84
909.965	53.14
910.397	92.94
910.828	315.14
911.259	466.04
911.691	213.54
912.122	104.24
912.553	58.74
912.984	34.64
913.415	26.04
913.847	23.44
914.278	15.34
914.709	12.84
915.14	14.54
915.571	17.14
916.002	18.44
916.433	13.44
916.864	19.94
917.295	17.04
917.726	25.24
918.157	17.04
918.587	20.74
919.018	17.64
919.449	18.74
919.88	29.54
920.311	29.84
920.741	51.04
921.172	161.84
921.603	154.44
922.033	69.34
922.464	43.34
922.895	22.74
923.325	16.04
923.756	12.44
924.186	24.84
924.617	27.64
925.047	39.74
925.478	56.94
925.908	41.24
926.338	29.54
926.769	21.14
927.199	20.24
927.629	6.64
928.06	13.64
928.49	21.34
928.92	12.64
929.35	13.44
929.78	8.74
930.21	12.24
930.641	10.24
931.071	9.04
931.501	4.44
931.931	5.64
932.361	9.14
932.791	-1.86
933.221	0.94
933.651	11.94
934.08	18.84
934.51	25.54
934.94	11.14
935.37	5.14
935.8	12.04
936.229	6.24
936.659	2.84
937.089	3.64
937.519	14.74
937.948	30.64
938.378	10.74
938.807	2.54
939.237	7.04
939.666	8.54
940.096	-6.46
940.525	-2.36
940.955	-1.36
941.384	3.24
941.814	-4.76
942.243	0.64
942.672	11.44
943.102	0.14
943.531	-0.36
943.96	3.84
944.39	-2.66
944.819	-1.56
945.248	-0.06
945.677	5.94
946.106	6.54
946.535	4.44
946.964	-6.46
947.393	5.74
947.822	6.44
948.251	-3.26
948.68	7.84
949.109	9.24
949.538	7.24
949.967	-2.86
950.396	2.34
950.825	-5.26
951.254	6.44
951.682	-2.66
952.111	-0.16
952.54	5.44
952.969	-4.96
953.397	-7.76
953.826	-1.26
954.254	-5.06
954.683	-4.16
955.112	-4.56
955.54	1.94
955.969	1.84
956.397	4.94
956.826	-1.46
957.254	3.34
957.682	0.24
958.111	13.04
958.539	-2.96
958.967	8.64
959.396	3.54
959.824	4.94
960.252	-2.96
960.68	-8.36
961.109	-3.96
961.537	-10.26
961.965	-0.06
962.393	-2.26
962.821	-1.76
963.249	-1.66
963.677	2.54
964.105	4.84
964.533	43.74
964.961	44.14
965.389	21.84
965.817	7.64
966.245	-0.66
966.672	7.84
967.1	-7.66
967.528	1.74
967.956	-6.66
968.383	3.34
968.811	-2.66
969.239	-2.86
969.666	-9.26
970.094	-1.96
970.522	-0.56
970.949	5.54
971.377	-3.86
971.804	-0.76
972.232	-9.76
972.659	-3.76
973.087	-3.36
973.514	-0.56
973.941	-2.36
974.369	4.24
974.796	0.54
975.223	-3.56
975.651	-0.06
976.078	-1.36
976.505	-0.56
976.932	3.14
977.359	14.64
977.786	9.04
978.214	5.44
978.641	-3.56
979.068	-4.66
979.495	-1.36
979.922	-2.76
980.349	3.44
980.776	5.54
981.202	-1.56
981.629	4.64
982.056	2.44
982.483	-4.46
982.91	3.44
983.337	-9.06
983.763	8.44
984.19	0.34
984.617	-0.56
985.043	-7.06
985.47	-1.26
985.897	-3.46
986.323	-8.76
986.75	2.44
987.176	0.04
987.603	0.94
988.029	4.34
988.456	2.54
988.882	4.34
989.308	-8.66
989.735	-2.16
990.161	4.24
990.587	-7.36
991.014	-1.46
991.44	3.14
991.866	-2.36
992.292	-2.46
992.719	-2.06
993.145	0.54
993.571	-6.66
993.997	-6.36
994.423	-2.76
994.849	-4.26
995.275	5.74
995.701	-1.26
996.127	-8.56
996.553	-1.06
996.979	-6.06
997.405	-2.36
997.83	-2.96
998.256	-4.36
998.682	-5.26
999.108	-7.36
999.534	-1.76
999.959	-3.46
1000.385	-0.56
1000.811	-3.76
1001.236	-12.86
1001.662	-6.96
1002.087	-4.66
1002.513	2.44
1002.938	-0.56
1003.364	-2.46
1003.789	0.54
1004.215	1.84
1004.64	-0.96
1005.066	4.84
1005.491	2.54
1005.916	4.04
1006.342	-0.06
1006.767	-4.06
1007.192	1.54
1007.617	-9.26
1008.042	-7.16
1008.468	-2.66
1008.893	-3.06
1009.318	-9.26
1009.743	-2.56
1010.168	0.94
1010.593	-1.56
1011.018	-9.66
1011.443	-7.26
1011.868	1.94
1012.293	-2.46
1012.718	-6.66
1013.143	-1.96
1013.567	2.84
1013.992	5.34
1014.417	-14.36
1014.842	-2.86
1015.267	-3.96
1015.691	-2.26
1016.116	14.34
1016.541	-1.96
1016.965	2.74
1017.39	1.54
1017.814	-8.86
1018.239	-4.66
1018.663	-11.46
1019.088	-15.36
1019.512	-2.76
1019.937	0.34
1020.361	-0.96
1020.785	-9.56
1021.21	-1.66
1021.634	-0.36
1022.058	-1.76
1022.483	-1.76
1022.907	-8.16
1023.331	-2.56
1023.755	-5.26
1024.179	-4.26
1024.604	-1.96
1025.028	-8.56
1025.452	2.14
1025.876	0.04
1026.3	-3.16
1026.724	-14.26
1027.148	-1.36
1027.572	-9.66
1027.996	-8.16
1028.42	-2.36
1028.843	-0.46
1029.267	-7.76
1029.691	-2.66
1030.115	-3.86
1030.539	-3.16
1030.962	-6.36
1031.386	-11.66
1031.81	-3.76
1032.233	-6.16
1032.657	-4.06
1033.08	-4.76
1033.504	-5.86
1033.927	-4.56
1034.351	3.24
1034.774	-3.66
1035.198	-0.86
1035.621	-2.96
1036.045	-7.86
1036.468	3.24
1036.891	-10.46
1037.315	-11.86
1037.738	-10.06
1038.161	-1.36
1038.584	-9.56
1039.008	-9.56
1039.431	-3.66
1039.854	-2.66
1040.277	-4.46
1040.7	-10.76
1041.123	-1.06
1041.546	-6.16
1041.969	0.44
1042.392	-3.36
1042.815	-9.56
1043.238	-4.36
1043.661	3.44
1044.084	-4.86
1044.507	-7.56
1044.93	-2.46
1045.352	-11.56
1045.775	1.74
1046.198	1.44
1046.621	-6.56
1047.043	-3.76
1047.466	6.74
1047.889	-4.96
1048.311	-7.16
1048.734	-1.16
1049.156	-4.06
1049.579	1.04
1050.001	0.14
1050.424	1.04
1050.846	-3.06
1051.269	-8.96
1051.691	-13.06
1052.113	-4.06
1052.536	-1.26
1052.958	-0.36
1053.38	-4.06
1053.802	-11.26
1054.225	0.34
1054.647	-7.16
1055.069	-1.56
1055.491	4.64
1055.913	-5.36
1056.335	1.14
1056.757	-5.26
1057.179	-5.16
1057.601	0.44
1058.023	0.54
1058.445	-1.86
1058.867	-2.46
1059.289	-2.56
1059.711	-8.96
1060.133	3.14
1060.555	-8.66
1060.976	-8.46
1061.398	-5.66
1061.82	-4.46
1062.241	-4.46
1062.663	-5.36
1063.085	-1.86
1063.506	2.84
1063.928	1.94
1064.35	-2.26
1064.771	-10.06
1065.193	-7.16
1065.614	-8.76
1066.035	-2.96
1066.457	-6.66
1066.878	4.24
1067.3	-9.56
1067.721	-4.56
1068.142	-7.66
1068.564	-3.86
1068.985	-7.06
1069.406	-2.66
1069.827	-3.46
1070.248	-5.26
1070.67	-4.26
1071.091	-7.86
1071.512	-2.86
1071.933	-5.26
1072.354	-6.96
1072.775	-2.76
1073.196	-12.46
1073.617	-6.26
1074.038	-5.66
1074.459	0.64
1074.88	-10.36
1075.3	3.14
1075.721	-2.46
1076.142	2.54
1076.563	0.34
1076.983	-5.26
1077.404	-6.96
1077.825	-14.76
1078.246	-1.56
1078.666	-10.36
1079.087	-2.76
1079.507	-6.16
1079.928	1.74
1080.348	-0.96
1080.769	-10.46
1081.189	-2.36
1081.61	1.44
1082.03	-4.96
1082.451	-11.96
1082.871	-4.06
1083.291	-7.86
1083.711	-8.76
1084.132	-6.56
1084.552	-2.56
1084.972	3.84
1085.392	-6.76
1085.813	-6.86
1086.233	-9.46
1086.653	-4.46
1087.073	0.14
1087.493	-2.86
1087.913	-14.46
1088.333	-9.26
1088.753	-9.96
1089.173	1.74
1089.593	-0.86
1090.013	-0.06
1090.433	-0.06
1090.852	-1.26
1091.272	2.34
1091.692	-6.96
1092.112	-2.86
1092.531	-2.26
1092.951	-16.56
1093.371	-7.16
1093.79	-0.66
1094.21	-2.56
1094.63	-7.16
1095.049	-4.56
1095.469	-5.26
1095.888	-4.66
1096.308	1.44
1096.727	1.24
1097.146	-4.96
1097.566	-0.46
1097.985	-5.96
1098.405	-4.86
1098.824	-8.16
1099.243	-1.46
1099.662	-9.86
1100.082	-6.96
1100.501	-2.86
1100.92	-10.06
1101.339	-4.46
1101.758	-6.56
