Data from 20171114-ORNL-Ar_H_NY_Subt18_08-06-08-996.txt Node
Date: Tue Nov 14 08:06:08 EST 2017
User: Ender
Spectrometer: HR+D1039
Trigger mode: 0
Integration Time (sec): 2.730000E-2
Scans to average: 10
Electric dark correction enabled: true
Nonlinearity correction enabled: false
Boxcar width: 0
XAxis mode: Wavelengths
Number of Pixels in Spectrum: 2048
>>>>>Begin Spectral Data<<<<<
187.836	-5
188.309	-5
188.782	-5
189.255	-0.2
189.728	-1.7
190.201	6.9
190.674	3
191.147	0.7
191.619	-3.7
192.092	-2.6
192.565	-0.1
193.038	-1.1
193.511	-0.7
193.984	-1.6
194.456	0.2
194.929	2.7
195.402	-0.1
195.874	3.3
196.347	0.6
196.82	-7.5
197.292	4.2
197.765	5.3
198.237	-9
198.71	3.5
199.182	-3.8
199.655	-2.9
200.127	-0.6
200.6	-2.4
201.072	-3.6
201.544	-4.8
202.017	-5.1
202.489	3.7
202.961	2.1
203.433	-3.8
203.906	-3.2
204.378	-7.5
204.85	-6.9
205.322	-7.2
205.794	-9.1
206.266	-3.5
206.739	-9.1
207.211	0.7
207.683	-2.9
208.155	-5.7
208.627	-4.7
209.099	-7.2
209.57	-11.1
210.042	-6
210.514	-1.3
210.986	-0.5
211.458	-9.4
211.93	-0.9
212.402	1.3
212.873	-7.2
213.345	-10.1
213.817	-10.9
214.288	-11.7
214.76	-14.2
215.232	-1.9
215.703	1.3
216.175	2.6
216.646	-9.6
217.118	-5.5
217.589	-3.7
218.061	-1.6
218.532	-2.5
219.004	-1.9
219.475	-4.3
219.946	-0.4
220.418	-9.1
220.889	2.1
221.36	3.5
221.832	-2.6
222.303	-6.7
222.774	-1.2
223.245	-3.7
223.717	-12
224.188	-3.6
224.659	-8.4
225.13	-3
225.601	-6.6
226.072	0.3
226.543	-1.5
227.014	-3.9
227.485	-5.5
227.956	-8.3
228.427	-1.6
228.898	2.6
229.369	6
229.839	-3
230.31	-8.2
230.781	4.4
231.252	-1.6
231.722	0.1
232.193	-1.3
232.664	1.5
233.135	1.5
233.605	0.5
234.076	-3.8
234.546	-3.9
235.017	2.7
235.487	1.7
235.958	-1
236.428	-1.1
236.899	7.5
237.369	-0.9
237.84	-6.1
238.31	8.9
238.78	7.9
239.251	3.1
239.721	1.3
240.191	4
240.662	-4.5
241.132	2.9
241.602	1.8
242.072	2.3
242.542	3.6
243.013	3.1
243.483	2.7
243.953	1.5
244.423	0.6
244.893	-3.8
245.363	1.6
245.833	4.5
246.303	-2.3
246.773	14.7
247.243	6.2
247.712	1.3
248.182	6.9
248.652	3.6
249.122	0.8
249.592	14
250.061	24.7
250.531	34.8
251.001	20
251.471	22.8
251.94	17.6
252.41	3.7
252.879	1.8
253.349	10.8
253.818	11.7
254.288	4.8
254.757	5.6
255.227	3.1
255.696	5.4
256.166	10.2
256.635	9.4
257.105	5.9
257.574	7.1
258.043	6
258.513	10.4
258.982	18.4
259.451	10.7
259.92	14.8
260.389	12.8
260.859	17.7
261.328	7
261.797	15.7
262.266	9.2
262.735	14.1
263.204	7
263.673	3.5
264.142	13.4
264.611	-6.5
265.08	1.2
265.549	-1.2
266.018	2.6
266.487	0.8
266.955	2
267.424	5.1
267.893	8.4
268.362	-2.1
268.83	2.8
269.299	11.5
269.768	11
270.236	8.1
270.705	3.9
271.174	1.3
271.642	8.7
272.111	10.4
272.579	14.5
273.048	24.5
273.516	29
273.985	24.7
274.453	26.1
274.922	19.5
275.39	12.4
275.858	4.7
276.327	13.1
276.795	18.6
277.263	9.2
277.731	34.4
278.2	52.9
278.668	63.1
279.136	51
279.604	20.6
280.072	13.5
280.54	8.5
281.008	12.5
281.477	14.2
281.945	6.6
282.413	17.1
282.881	14.1
283.348	10.2
283.816	16.2
284.284	15
284.752	23.1
285.22	19.8
285.688	18.6
286.156	21.1
286.623	49.6
287.091	59.6
287.559	25.3
288.026	16.6
288.494	19.3
288.962	4.5
289.429	9
289.897	20.5
290.364	18.4
290.832	11.4
291.3	19.7
291.767	21.9
292.234	24.1
292.702	14.7
293.169	19.3
293.637	22.9
294.104	19.2
294.571	5.4
295.039	12.7
295.506	16.8
295.973	18
296.44	14.7
296.908	21.4
297.375	19.5
297.842	22.3
298.309	18.5
298.776	14.4
299.243	18.3
299.71	12.1
300.177	20
300.644	24.7
301.111	20.7
301.578	31.2
302.045	22.5
302.512	18.8
302.979	22.7
303.446	26
303.913	23.5
304.379	18.9
304.846	24.9
305.313	22
305.78	24.5
306.246	29.7
306.713	26.7
307.18	23.1
307.646	32.2
308.113	30.6
308.579	29.9
309.046	27.8
309.512	26.1
309.979	22.9
310.445	25.3
310.912	24.7
311.378	28.7
311.845	34.1
312.311	33
312.777	27.9
313.244	29.4
313.71	41.3
314.176	30.1
314.642	33.6
315.109	35.5
315.575	38.6
316.041	38.6
316.507	33.8
316.973	35.2
317.439	37.8
317.905	39.6
318.371	40.8
318.837	35.3
319.303	33.2
319.769	32.7
320.235	28
320.701	43.5
321.167	42
321.633	34.4
322.099	35.7
322.564	43.3
323.03	46.6
323.496	41.1
323.962	43.1
324.427	45.8
324.893	44.4
325.359	43.6
325.824	39.8
326.29	35.7
326.755	40.6
327.221	40.6
327.686	39.1
328.152	51.3
328.617	44.8
329.083	52.1
329.548	52.2
330.014	51.2
330.479	43.6
330.944	45
331.41	47.6
331.875	41.9
332.34	42.8
332.805	45.8
333.271	47.9
333.736	47
334.201	55
334.666	50.3
335.131	53.6
335.596	56.6
336.061	51.3
336.526	42.2
336.991	48.6
337.456	57.7
337.921	46.6
338.386	45.2
338.851	49.8
339.316	45.6
339.781	51.7
340.246	58.1
340.711	54
341.175	57.2
341.64	45.5
342.105	51.3
342.569	55.9
343.034	59.3
343.499	55.5
343.963	50.3
344.428	67
344.893	62.2
345.357	63.3
345.822	65.7
346.286	73.8
346.751	82.1
347.215	75.7
347.679	72.9
348.144	99.9
348.608	85.7
349.073	74.5
349.537	76.8
350.001	81.9
350.465	93.1
350.93	77.2
351.394	88.7
351.858	75.7
352.322	89.1
352.786	86
353.25	104
353.715	117.3
354.179	102.7
354.643	122.6
355.107	132.2
355.571	108.9
356.035	106.5
356.498	127.1
356.962	125.7
357.426	136.1
357.89	115
358.354	92
358.818	80.7
359.281	81.2
359.745	76.5
360.209	78.7
360.673	82
361.136	81.2
361.6	85.4
362.064	84.1
362.527	82.7
362.991	96.4
363.454	81.1
363.918	82
364.381	72.6
364.845	85.6
365.308	88.7
365.772	88.7
366.235	85.4
366.698	83.4
367.162	88.9
367.625	87.3
368.088	91.9
368.552	87.4
369.015	95.3
369.478	97.3
369.941	99.5
370.404	94.9
370.867	108.1
371.331	105.5
371.794	112.9
372.257	115
372.72	121.2
373.183	113.3
373.646	105
374.109	106.5
374.572	109.3
375.035	111.3
375.497	110.6
375.96	108.4
376.423	108.6
376.886	112.2
377.349	112.4
377.811	105.7
378.274	106.4
378.737	108.2
379.199	109.7
379.662	120.5
380.125	111.6
380.587	121.8
381.05	129.5
381.512	129.3
381.975	136.2
382.437	133.8
382.9	134.1
383.362	132.9
383.825	149.5
384.287	144.3
384.75	143.8
385.212	147.1
385.674	142.2
386.136	141.5
386.599	126.1
387.061	124.7
387.523	131.6
387.985	138.8
388.447	150.9
388.91	145.6
389.372	161.8
389.834	154.9
390.296	149.1
390.758	160.4
391.22	169.9
391.682	212.2
392.144	295.1
392.606	230
393.068	171.6
393.529	167.9
393.991	160.1
394.453	147.7
394.915	162.9
395.377	197.2
395.838	218.2
396.3	166.6
396.762	148.4
397.224	136.2
397.685	133.6
398.147	135.4
398.608	130.3
399.07	140.2
399.531	137.6
399.993	137.8
400.454	152.9
400.916	149.3
401.377	144.6
401.839	155.7
402.3	151.4
402.762	172.9
403.223	184.8
403.684	173.6
404.145	164.5
404.607	169.7
405.068	164.7
405.529	174.4
405.99	200.8
406.451	178.6
406.913	174.8
407.374	164.8
407.835	168.4
408.296	172.2
408.757	174.9
409.218	193.3
409.679	183.6
410.14	179.3
410.601	176.3
411.062	189.4
411.522	187.3
411.983	191.7
412.444	182.5
412.905	189.4
413.366	196.2
413.826	205.7
414.287	223.9
414.748	269.7
415.208	256.9
415.669	216.9
416.13	208.7
416.59	200.1
417.051	216.7
417.511	226
417.972	243.7
418.432	255
418.893	296.5
419.353	250.9
419.814	204.5
420.274	182.4
420.734	192.4
421.195	198.2
421.655	197.1
422.115	200.3
422.576	195.6
423.036	195.9
423.496	203
423.956	221.4
424.416	229.7
424.876	272.5
425.336	267.8
425.797	274.9
426.257	262.1
426.717	240.5
427.177	233.3
427.637	228.2
428.097	239.3
428.556	250.9
429.016	273.8
429.476	264
429.936	281.6
430.396	282.5
430.856	293.6
431.315	331.3
431.775	351.3
432.235	386.3
432.694	359.7
433.154	370.7
433.614	401.1
434.073	350.8
434.533	291.4
434.993	280.7
435.452	292.3
435.912	294.7
436.371	298.2
436.83	293.9
437.29	272.3
437.749	257.1
438.209	255.5
438.668	283.5
439.127	289.8
439.587	272.3
440.046	255.7
440.505	263.5
440.964	286.8
441.424	337.2
441.883	320.2
442.342	263.4
442.801	229.7
443.26	228
443.719	222.6
444.178	215.6
444.637	219.2
445.096	226.9
445.555	234.1
446.014	232.6
446.473	231.4
446.932	236.2
447.391	236.2
447.849	233
448.308	223
448.767	223.6
449.226	239.7
449.685	243.1
450.143	251.3
450.602	236.4
451.061	227.6
451.519	239.6
451.978	238.3
452.436	237.7
452.895	248.9
453.353	255.9
453.812	246
454.27	245.1
454.729	240.8
455.187	243.6
455.646	252.9
456.104	248.4
456.562	262.4
457.021	275.2
457.479	262.4
457.937	282.4
458.395	271.7
458.854	258.1
459.312	265.3
459.77	278
460.228	259
460.686	247.6
461.144	251.6
461.602	253
462.06	243.2
462.518	261.4
462.976	260.5
463.434	265.9
463.892	267.5
464.35	287.6
464.808	290.9
465.266	271.5
465.724	277.2
466.181	280.6
466.639	279.1
467.097	293.2
467.555	306.8
468.012	307.4
468.47	313.5
468.928	337.3
469.385	347.1
469.843	351.2
470.3	351.2
470.758	374.3
471.215	392.1
471.673	416.1
472.13	410.4
472.588	427.5
473.045	385.9
473.503	380.1
473.96	398.9
474.417	411.1
474.875	439.1
475.332	492.1
475.789	473.4
476.246	476.9
476.704	501.2
477.161	522.5
477.618	536.3
478.075	580
478.532	636.2
478.989	697.6
479.446	839.6
479.903	782.5
480.36	842.8
480.817	881.6
481.274	997.3
481.731	1100.4
482.188	1194.6
482.645	1327.8
483.102	1452.4
483.558	1594.6
484.015	1642
484.472	1618.8
484.929	1573.8
485.385	1511.1
485.842	1466.7
486.299	1404.3
486.755	1340.4
487.212	1128.6
487.668	955.1
488.125	862.9
488.582	794.4
489.038	759.6
489.494	731.3
489.951	704
490.407	685.4
490.864	665.2
491.32	655.6
491.776	659.7
492.233	655.2
492.689	628.7
493.145	622.5
493.602	619.5
494.058	630.6
494.514	632.3
494.97	653.8
495.426	654.2
495.882	646.1
496.338	624
496.794	638.6
497.251	632.3
497.707	649.9
498.163	652.4
498.618	661.7
499.074	660.5
499.53	702.2
499.986	695.4
500.442	667.7
500.898	654.4
501.354	637.3
501.809	646.4
502.265	664.5
502.721	678.3
503.177	688.7
503.632	673
504.088	696.1
504.543	732.1
504.999	729.3
505.455	678.3
505.91	652.2
506.366	638.4
506.821	640.7
507.277	637.1
507.732	639.5
508.187	647.1
508.643	649.2
509.098	655.9
509.553	663.5
510.009	688.3
510.464	685.5
510.919	697
511.375	714.9
511.83	722.5
512.285	739.5
512.74	780.2
513.195	803
513.65	785.9
514.105	786.6
514.56	791
515.015	813.6
515.47	820.1
515.925	807.9
516.38	811.6
516.835	809.6
517.29	803.8
517.745	787.5
518.2	782.4
518.655	768.5
519.109	759.2
519.564	748.8
520.019	754.1
520.474	746.7
520.928	745.3
521.383	731.2
521.838	727.2
522.292	731.3
522.747	721.3
523.201	721.2
523.656	704.4
524.11	711.9
524.565	705.9
525.019	706.4
525.474	715.5
525.928	709.2
526.382	702.2
526.837	715
527.291	711.7
527.745	710.6
528.2	715.6
528.654	711.5
529.108	702.5
529.562	710.9
530.016	705.4
530.47	702
530.925	706.5
531.379	712.8
531.833	712
532.287	716.1
532.741	715.8
533.195	715.3
533.649	720.9
534.103	731.7
534.556	721.6
535.01	726.8
535.464	726.4
535.918	731.3
536.372	741.1
536.826	735
537.279	719
537.733	723.3
538.187	738.5
538.64	733
539.094	737.8
539.548	744.6
540.001	737.4
540.455	743.1
540.908	744.6
541.362	752.6
541.815	763.8
542.269	765.4
542.722	775.2
543.175	791
543.629	790.5
544.082	802.2
544.536	801.7
544.989	794.1
545.442	806.7
545.895	808.6
546.349	797.6
546.802	803.4
547.255	815.9
547.708	819.4
548.161	826.5
548.614	839.8
549.067	839.1
549.52	832.5
549.973	835.2
550.426	820.4
550.879	813.6
551.332	832
551.785	829
552.238	821.6
552.691	838.1
553.144	847.8
553.596	856.9
554.049	875.5
554.502	909.8
554.955	921.3
555.407	916.4
555.86	924.1
556.313	906.3
556.765	894.6
557.218	901.8
557.67	900.8
558.123	889
558.576	888
559.028	891.6
559.48	903.3
559.933	885.7
560.385	853.5
560.838	824.2
561.29	784.9
561.742	784.2
562.195	777.5
562.647	790.4
563.099	797.6
563.551	791
564.004	794.4
564.456	784.9
564.908	785.1
565.36	751.9
565.812	750.7
566.264	744.9
566.716	742.7
567.168	739.7
567.62	736.7
568.072	712.5
568.524	689.7
568.976	696.2
569.428	685.6
569.88	680.9
570.332	692.7
570.784	694.7
571.235	702.7
571.687	716.1
572.139	721.4
572.59	729.7
573.042	722.6
573.494	720.8
573.945	714.9
574.397	697.4
574.849	707.3
575.3	703.1
575.752	694.7
576.203	695.3
576.655	693.7
577.106	675.2
577.557	671.2
578.009	683.5
578.46	674.9
578.912	681.3
579.363	684.1
579.814	677.2
580.265	674.7
580.717	678
581.168	681
581.619	690.1
582.07	689.6
582.521	686.3
582.972	682.8
583.423	684.9
583.875	684.9
584.326	707.2
584.777	750.9
585.227	831.8
585.678	924.4
586.129	1011.3
586.58	1087.3
587.031	1163.8
587.482	1328.2
587.933	1507.6
588.384	1311.3
588.834	979.1
589.285	817.5
589.736	796
590.186	786
590.637	776.5
591.088	743.7
591.538	738.9
591.989	741.9
592.439	741.7
592.89	732.4
593.34	723.5
593.791	713.6
594.241	714
594.692	720.3
595.142	716.7
595.593	710.2
596.043	724.2
596.493	724.8
596.943	721.8
597.394	734.7
597.844	718.8
598.294	742.4
598.744	764.3
599.195	777.1
599.645	822
600.095	874.3
600.545	928.2
600.995	972.4
601.445	1037.9
601.895	1109.1
602.345	1150.3
602.795	1132.9
603.245	1076.2
603.695	1022.3
604.145	964
604.594	918.1
605.044	868
605.494	805
605.944	768.5
606.393	754.8
606.843	742.2
607.293	746.9
607.743	746.3
608.192	756.4
608.642	761.3
609.091	777.1
609.541	779.2
609.99	785.2
610.44	777.5
610.889	722.7
611.339	709.5
611.788	703.6
612.238	702.1
612.687	731.1
613.136	727.4
613.586	741
614.035	744
614.484	766
614.933	764.3
615.383	752.1
615.832	752.1
616.281	746.4
616.73	697.9
617.179	673.8
617.628	658.3
618.077	648.2
618.526	624.4
618.975	624.3
619.424	614
619.873	624.2
620.322	625.7
620.771	606.5
621.22	605.4
621.669	601.2
622.118	601.6
622.567	587.8
623.015	582.5
623.464	584.6
623.913	554.5
624.361	561
624.81	556.2
625.259	566.8
625.707	563.3
626.156	563.7
626.604	572.8
627.053	561.1
627.501	556.4
627.95	575.6
628.398	587
628.847	572.4
629.295	576.6
629.744	579.4
630.192	576.9
630.64	574.6
631.089	567.4
631.537	578.2
631.985	582.3
632.433	605
632.881	608.1
633.33	655.4
633.778	640.1
634.226	568.8
634.674	573
635.122	581.1
635.57	605.6
636.018	639.5
636.466	577.9
636.914	559.3
637.362	572
637.81	579.6
638.258	586.4
638.705	580.8
639.153	615.2
639.601	623
640.049	630.2
640.497	670.8
640.944	686.9
641.392	639
641.84	615.7
642.287	582.9
642.735	567.6
643.182	577.2
643.63	577
644.078	577.8
644.525	589.6
644.973	598.3
645.42	612.3
645.867	628.2
646.315	645.5
646.762	673.3
647.21	688.9
647.657	718
648.104	754.8
648.551	773.2
648.999	836.2
649.446	931.7
649.893	1016.1
650.34	1173.4
650.787	1404.4
651.234	1737.6
651.682	2259.4
652.129	3112.7
652.576	4490.6
653.023	6598.6
653.47	9066.2
653.917	11379.9
654.363	13127.9
654.81	14536.2
655.257	13833.9
655.704	9053.1
656.151	5334.8
656.598	3466.7
657.044	2448.3
657.491	1889.3
657.938	1506.7
658.385	1260.3
658.831	1092.6
659.278	961
659.724	858
660.171	790.7
660.618	724.5
661.064	698.5
661.511	672
661.957	662.6
662.404	635.3
662.85	662.2
663.296	624.7
663.743	564.9
664.189	541.8
664.635	538.9
665.082	527.6
665.528	533.8
665.974	523.4
666.42	517.7
666.867	500.9
667.313	493.7
667.759	491.2
668.205	483.7
668.651	480.7
669.097	481.8
669.543	503.5
669.989	473.2
670.435	456.2
670.881	442
671.327	446.6
671.773	462.7
672.219	486.6
672.665	542.8
673.11	588.4
673.556	628.2
674.002	665
674.448	653.1
674.893	544.6
675.339	474.5
675.785	438.3
676.23	419.8
676.676	401.1
677.122	380.3
677.567	368.5
678.013	363.5
678.458	361
678.904	366.8
679.349	343.2
679.794	350.7
680.24	347.2
680.685	354
681.131	342.3
681.576	349.5
682.021	363.7
682.466	347.2
682.912	351.5
683.357	351.5
683.802	378.7
684.247	408.7
684.692	457.1
685.137	492.4
685.583	532.4
686.028	563.8
686.473	516.6
686.918	451.1
687.363	412
687.807	390
688.252	359.4
688.697	351.1
689.142	333.3
689.587	338.1
690.032	317.3
690.477	333
690.921	352.9
691.366	374.7
691.811	401
692.255	421.6
692.7	455.4
693.145	497.3
693.589	689
694.034	1110.2
694.478	1512.5
694.923	1730.3
695.367	2243.7
695.812	1178.5
696.256	490.4
696.701	369.1
697.145	339.5
697.59	330
698.034	319.2
698.478	327.9
698.922	318.2
699.367	326.9
699.811	340.9
700.255	349.9
700.699	379.2
701.143	421.4
701.588	477.6
702.032	505.6
702.476	512.8
702.92	485.6
703.364	490.3
703.808	628.1
704.252	1013
704.696	1442.5
705.14	1636.5
705.584	2131.1
706.027	1057
706.471	517.8
706.915	394.7
707.359	343.3
707.803	309.9
708.246	305.1
708.69	321.9
709.134	313.2
709.577	302.6
710.021	320.9
710.465	307.2
710.908	303.1
711.352	295.7
711.795	313.9
712.239	349.7
712.682	380.9
713.126	411.4
713.569	456.5
714.012	360.5
714.456	317.4
714.899	299
715.342	272.3
715.786	254.9
716.229	257.2
716.672	244.9
717.115	249.3
717.558	251.1
718.002	252.4
718.445	255.1
718.888	284.8
719.331	289.5
719.774	306.4
720.217	300.7
720.66	283.9
721.103	266.3
721.546	248
721.989	244.9
722.432	228
722.874	235.8
723.317	228.3
723.76	240.6
724.203	259.9
724.645	311.4
725.088	434.1
725.531	560.1
725.974	641.8
726.416	549.1
726.859	301.7
727.301	246
727.744	234.6
728.187	231.8
728.629	235.5
729.071	238.3
729.514	254.7
729.956	271.9
730.399	275.3
730.841	280.3
731.283	263
731.726	257.7
732.168	261.7
732.61	261.3
733.053	283
733.495	318.9
733.937	346.9
734.379	394.1
734.821	425
735.263	536.5
735.705	820.2
736.148	1545.2
736.59	2552.5
737.032	3030.2
737.474	2455.4
737.916	794.8
738.357	421.5
738.799	324.7
739.241	295
739.683	282
740.125	290.7
740.567	294.5
741.008	307.8
741.45	306.3
741.892	309.5
742.334	344.5
742.775	353.4
743.217	338.1
743.658	263.6
744.1	255.4
744.542	258.3
744.983	312.4
745.425	350.8
745.866	339.1
746.307	282.2
746.749	276.6
747.19	315.7
747.632	452
748.073	864.7
748.514	1831.6
748.956	2802.9
749.397	3507.9
749.838	2930.5
750.279	2934.2
750.72	1479.2
751.162	537.5
751.603	319.7
752.044	244.2
752.485	220.1
752.926	211.6
753.367	195.9
753.808	189.8
754.249	190.1
754.69	182.7
755.131	181.1
755.572	184
756.013	186.1
756.453	181.4
756.894	184.8
757.335	191.3
757.776	190.3
758.216	193.1
758.657	197.9
759.098	200.3
759.538	218.4
759.979	265.2
760.42	365.2
760.86	685.4
761.301	1776.7
761.741	4318.5
762.182	6392
762.622	4493.9
763.063	1291.1
763.503	525.6
763.943	343.7
764.384	333.7
764.824	403.7
765.264	440.3
765.705	303.8
766.145	213.8
766.585	191.8
767.025	184.2
767.465	190.7
767.906	242.4
768.346	312.4
768.786	332.4
769.226	256.3
769.666	315.4
770.106	602.4
770.546	1512.8
770.986	2622
771.426	2373
771.866	775.5
772.306	325.3
772.745	204.9
773.185	173.2
773.625	166.6
774.065	167.2
774.505	193.4
774.944	303.7
775.384	672.8
775.824	1222.4
776.263	1185.6
776.703	508.3
777.142	225
777.582	163
778.021	136.4
778.461	138.4
778.9	139.1
779.34	132.3
779.779	113.4
780.219	104.3
780.658	110.4
781.097	104.2
781.537	111.1
781.976	104.3
782.415	101.8
782.855	108.1
783.294	99.6
783.733	99
784.172	106.7
784.611	103.8
785.05	111
785.489	110.5
785.928	118.1
786.367	117.8
786.806	118.6
787.245	125.9
787.684	138.1
788.123	144.4
788.562	127.1
789.001	129.8
789.44	122.4
789.879	114.8
790.317	117.3
790.756	128.1
791.195	124.2
791.634	148
792.072	206.8
792.511	355.7
792.95	979.6
793.388	2103.4
793.827	1914.4
794.265	671
794.704	280.3
795.142	183.1
795.581	154
796.019	134
796.458	125.8
796.896	119.4
797.334	128.6
797.773	152.9
798.211	214.9
798.649	427
799.087	1003.2
799.526	1574.1
799.964	1972
800.402	2011.1
800.84	754.9
801.278	291.8
801.716	180.8
802.154	149.4
802.592	145.1
803.03	133.4
803.468	129.9
803.906	135.5
804.344	151.9
804.782	137
805.22	128.6
805.658	127.3
806.096	146.9
806.533	153.6
806.971	174.3
807.409	216.1
807.847	306.1
808.284	646.9
808.722	1815.9
809.16	3246.3
809.597	3068.7
810.035	5326.5
810.472	5725.8
810.91	2055.4
811.347	779.6
811.785	395.1
812.222	248.8
812.66	199.3
813.097	166.9
813.535	146.8
813.972	126.9
814.409	114.8
814.846	104.7
815.284	108.6
815.721	101.2
816.158	103.3
816.595	117.7
817.032	173.1
817.47	202.4
817.907	176.6
818.344	147.1
818.781	112.8
819.218	100.2
819.655	119.8
820.092	181.1
820.529	206.6
820.966	172
821.403	135.2
821.839	109.8
822.276	97.2
822.713	120.6
823.15	136.2
823.587	124.3
824.023	143.1
824.46	295
824.897	871.1
825.333	1340.8
825.77	572.8
826.206	228.5
826.643	129.6
827.08	101.7
827.516	83.8
827.953	75.2
828.389	80.4
828.825	75
829.262	68.9
829.698	57.5
830.135	57.5
830.571	66.1
831.007	63.9
831.443	64.8
831.88	64.4
832.316	60.7
832.752	67.7
833.188	63.6
833.624	59
834.06	64.5
834.497	68.4
834.933	72.9
835.369	71.3
835.805	63.4
836.241	73.8
836.677	74.7
837.112	88.7
837.548	107.4
837.984	132.2
838.42	193.6
838.856	479.3
839.292	1485.2
839.727	2262.2
840.163	1052.8
840.599	893.1
841.034	1988.6
841.47	2107.9
841.906	759.6
842.341	323
842.777	231.5
843.212	312.2
843.648	310.7
844.083	155.1
844.519	93.6
844.954	76.2
845.39	66.2
845.825	56.5
846.261	56.3
846.696	57.8
847.131	52
847.566	63.5
848.002	51.6
848.437	51.9
848.872	58.3
849.307	61.7
849.742	82.7
850.177	171.7
850.613	545.9
851.048	867.7
851.483	374.9
851.918	154.1
852.353	86.7
852.788	57.9
853.223	56
853.657	54.1
854.092	53.3
854.527	42.2
854.962	39.7
855.397	47.9
855.832	51.8
856.266	37.7
856.701	42.7
857.136	38.7
857.57	38.6
858.005	47.4
858.44	54.3
858.874	52.3
859.309	53.5
859.743	34.7
860.178	49.6
860.612	41.4
861.047	54.9
861.481	66.7
861.915	73.7
862.35	54.6
862.784	32.1
863.218	40.7
863.653	30.7
864.087	41.9
864.521	53.6
864.955	64.3
865.39	151.5
865.824	178
866.258	112.5
866.692	156.2
867.126	169.8
867.56	99.2
867.994	57.3
868.428	39.9
868.862	45.5
869.296	55.9
869.73	57.5
870.164	54
870.598	50.7
871.031	37.3
871.465	33.4
871.899	30.4
872.333	26.1
872.766	27.7
873.2	27.5
873.634	33.6
874.067	24.7
874.501	25.4
874.935	35.5
875.368	32.6
875.802	28.7
876.235	26.4
876.669	24.4
877.102	16.6
877.535	27.2
877.969	23.7
878.402	20.2
878.836	18.4
879.269	25.9
879.702	25.4
880.135	25.8
880.569	19.7
881.002	21.8
881.435	17.3
881.868	18.3
882.301	26.5
882.734	17.5
883.167	24
883.601	19.8
884.034	19.3
884.467	12.5
884.899	21.6
885.332	18.2
885.765	15.8
886.198	18.6
886.631	16.3
887.064	17
887.497	21.6
887.929	21.6
888.362	13.9
888.795	10.2
889.228	15
889.66	20.9
890.093	18
890.526	18.3
890.958	14
891.391	19.7
891.823	22.7
892.256	13.2
892.688	13.5
893.121	14.6
893.553	13.8
893.985	22.8
894.418	19.6
894.85	17.8
895.282	17.2
895.715	14.1
896.147	16
896.579	15.4
897.011	11.4
897.444	15.8
897.876	7.4
898.308	17.8
898.74	13.8
899.172	14.7
899.604	25.1
900.036	22.6
900.468	16.4
900.9	18.4
901.332	16.8
901.764	9.3
902.196	20.6
902.628	21.5
903.06	21.1
903.491	26.6
903.923	17.9
904.355	19.8
904.787	21.2
905.218	20.7
905.65	19.6
906.082	14.2
906.513	11.2
906.945	17.3
907.376	11.5
907.808	19
908.239	23.2
908.671	18.3
909.102	17.2
909.534	27.6
909.965	45.8
910.397	89.8
910.828	304.7
911.259	458
911.691	214.8
912.122	108.6
912.553	50.8
912.984	38.9
913.415	26.1
913.847	26.5
914.278	16.5
914.709	13.6
915.14	21.4
915.571	18.6
916.002	8.7
916.433	23.2
916.864	14.3
917.295	5.8
917.726	17.5
918.157	13.2
918.587	21.9
919.018	25.8
919.449	22.8
919.88	27.3
920.311	30.5
920.741	47.4
921.172	163.1
921.603	148.5
922.033	70
922.464	45
922.895	18.8
923.325	21.4
923.756	16.9
924.186	14.4
924.617	21.1
925.047	43.1
925.478	57.6
925.908	50
926.338	26.7
926.769	19.4
927.199	22.3
927.629	10.3
928.06	16.8
928.49	10.6
928.92	9.6
929.35	9.3
929.78	10.7
930.21	5.2
930.641	13.1
931.071	10.8
931.501	2.3
931.931	12
932.361	6.3
932.791	4.7
933.221	6.6
933.651	6.4
934.08	16.2
934.51	24.3
934.94	8.6
935.37	12.1
935.8	13.2
936.229	11.9
936.659	12.8
937.089	0.8
937.519	19.2
937.948	24
938.378	13.1
938.807	4
939.237	4
939.666	5.6
940.096	-6.3
940.525	3.1
940.955	-0.2
941.384	3.3
941.814	-8.4
942.243	1.6
942.672	-1.6
943.102	-3.7
943.531	-1.7
943.96	5.8
944.39	-2.2
944.819	-2
945.248	0.1
945.677	-0.2
946.106	4.9
946.535	4.3
946.964	7.2
947.393	1.1
947.822	3
948.251	0.1
948.68	1.6
949.109	6
949.538	8.6
949.967	-2.7
950.396	-2.1
950.825	0.2
951.254	0.5
951.682	-8.3
952.111	0.1
952.54	10.5
952.969	1
953.397	-7
953.826	3.4
954.254	-6.6
954.683	4.6
955.112	1.4
955.54	-2.9
955.969	-2.5
956.397	3.2
956.826	0.8
957.254	-3.2
957.682	6.8
958.111	3.9
958.539	1
958.967	1.9
959.396	-7.8
959.824	-1.1
960.252	4
960.68	-6.1
961.109	-2
961.537	2.3
961.965	-1.3
962.393	3.3
962.821	-6.8
963.249	-4.4
963.677	7
964.105	8.8
964.533	44.5
964.961	43
965.389	15.6
965.817	4.2
966.245	3.1
966.672	0.3
967.1	-8.5
967.528	3.3
967.956	-2.2
968.383	3.5
968.811	-5
969.239	5.5
969.666	-7
970.094	4.8
970.522	-0.8
970.949	5.5
971.377	-5.8
971.804	4.3
972.232	-1.8
972.659	-2.5
973.087	-4
973.514	-1.9
973.941	-3.6
974.369	3.4
974.796	5.4
975.223	6.8
975.651	-6.5
976.078	6
976.505	3.7
976.932	3.7
977.359	13.2
977.786	16.5
978.214	-2.1
978.641	-0.3
979.068	1.7
979.495	-3
979.922	-0.8
980.349	-4.4
980.776	4.8
981.202	0.1
981.629	5.3
982.056	3.4
982.483	-2.5
982.91	3.6
983.337	-8.8
983.763	-3.4
984.19	-8.5
984.617	-0.8
985.043	0.1
985.47	0.2
985.897	-3.7
986.323	-10.2
986.75	4.5
987.176	3.2
987.603	1.8
988.029	-1.6
988.456	-0.3
988.882	0.2
989.308	-9.5
989.735	-1.6
990.161	5.3
990.587	-5.6
991.014	-6.4
991.44	1.3
991.866	-0.4
992.292	-3.6
992.719	-1.3
993.145	3.1
993.571	-6
993.997	-4.1
994.423	1.2
994.849	-3
995.275	-0.4
995.701	-0.5
996.127	-1
996.553	-4.8
996.979	-2
997.405	-0.2
997.83	-5.5
998.256	-5.5
998.682	-5.2
999.108	-2.6
999.534	-4.8
999.959	-0.4
1000.385	-2.2
1000.811	1.2
1001.236	-12.1
1001.662	-4.4
1002.087	-11.7
1002.513	-2.7
1002.938	6.7
1003.364	-1.7
1003.789	1.8
1004.215	2.9
1004.64	-1.9
1005.066	5.8
1005.491	4.1
1005.916	5.3
1006.342	-6.9
1006.767	-7.4
1007.192	0.2
1007.617	-5.1
1008.042	-8.1
1008.468	-8.4
1008.893	-5.6
1009.318	6.8
1009.743	-0.3
1010.168	-3.3
1010.593	1.1
1011.018	-6.4
1011.443	-4.4
1011.868	0.9
1012.293	-5.1
1012.718	-5.3
1013.143	2.4
1013.567	-1.8
1013.992	0.1
1014.417	-13.6
1014.842	1.5
1015.267	-0.7
1015.691	-1.9
1016.116	0.9
1016.541	-3.8
1016.965	6.8
1017.39	-0.8
1017.814	-1.9
1018.239	-0.1
1018.663	-1.3
1019.088	-10.2
1019.512	-4.8
1019.937	-1.6
1020.361	-2.9
1020.785	-6.9
1021.21	-2.5
1021.634	-0.4
1022.058	2.8
1022.483	4
1022.907	-2.1
1023.331	-4.6
1023.755	-1.4
1024.179	-6
1024.604	-8.4
1025.028	-1
1025.452	-2.8
1025.876	-5.9
1026.3	1.8
1026.724	-15.1
1027.148	-3
1027.572	-9.4
1027.996	-5.1
1028.42	-1.7
1028.843	-2.4
1029.267	-6
1029.691	0.3
1030.115	-4.4
1030.539	-7.2
1030.962	-9
1031.386	-10.3
1031.81	-1.8
1032.233	-1.4
1032.657	2.7
1033.08	1.6
1033.504	-5.3
1033.927	-5
1034.351	2.4
1034.774	-0.4
1035.198	-3.9
1035.621	-7.5
1036.045	-3.5
1036.468	2.8
1036.891	-7.1
1037.315	-11.3
1037.738	-15.4
1038.161	0.6
1038.584	-6.5
1039.008	-7.3
1039.431	-6.1
1039.854	-0.2
1040.277	-8.5
1040.7	-10.8
1041.123	-0.1
1041.546	-3.2
1041.969	-6.2
1042.392	-2.5
1042.815	-4.1
1043.238	-3.9
1043.661	6.8
1044.084	-6.2
1044.507	-7.1
1044.93	-8.2
1045.352	-7.9
1045.775	4.3
1046.198	-0.9
1046.621	-5.9
1047.043	0.1
1047.466	9.1
1047.889	-4.3
1048.311	-0.6
1048.734	-7.2
1049.156	-2.4
1049.579	0.5
1050.001	-7.9
1050.424	-2.8
1050.846	-4
1051.269	-2.9
1051.691	-6.4
1052.113	0.9
1052.536	-0.2
1052.958	-1.5
1053.38	-6.2
1053.802	-7
1054.225	2.2
1054.647	-6
1055.069	-3.7
1055.491	5.3
1055.913	-11.6
1056.335	4.8
1056.757	-5.9
1057.179	-10.3
1057.601	-9.7
1058.023	0.4
1058.445	-6.5
1058.867	-1
1059.289	-3
1059.711	-6
1060.133	-3.7
1060.555	-2.4
1060.976	-14.8
1061.398	-6.4
1061.82	-3.1
1062.241	-7.5
1062.663	-5.8
1063.085	-5.1
1063.506	0.9
1063.928	-8
1064.35	1.3
1064.771	-12.7
1065.193	-1.3
1065.614	-4.9
1066.035	2.1
1066.457	-6.8
1066.878	-1.8
1067.3	-6.4
1067.721	-5.2
1068.142	-3.7
1068.564	-6.6
1068.985	-1.5
1069.406	-7.4
1069.827	-4.3
1070.248	0.9
1070.67	-6
1071.091	-7.3
1071.512	-9.6
1071.933	-7.3
1072.354	-8.8
1072.775	-6.5
1073.196	-5.7
1073.617	-1.3
1074.038	-5.8
1074.459	-0.7
1074.88	-6
1075.3	1.2
1075.721	-7.4
1076.142	-3.6
1076.563	-4.3
1076.983	-8.4
1077.404	-5.3
1077.825	-12.7
1078.246	-5.1
1078.666	-11.6
1079.087	-2.7
1079.507	-6.3
1079.928	-7.1
1080.348	-0.9
1080.769	-4.6
1081.189	-0.6
1081.61	-6.7
1082.03	-5.6
1082.451	-3.9
1082.871	-0.8
1083.291	-8.6
1083.711	-9.9
1084.132	-3.9
1084.552	-4.1
1084.972	-3.3
1085.392	-6.1
1085.813	-7.8
1086.233	-13.1
1086.653	-10.6
1087.073	-4
1087.493	-5.7
1087.913	-6.5
1088.333	-8.2
1088.753	-1.2
1089.173	3.9
1089.593	-5.2
1090.013	-0.8
1090.433	-2.3
1090.852	-6.9
1091.272	-6.9
1091.692	-2.3
1092.112	-3.7
1092.531	-9.2
1092.951	-13.9
1093.371	1.7
1093.79	-0.9
1094.21	-3.7
1094.63	-7.9
1095.049	-8.3
1095.469	-0.4
1095.888	0.7
1096.308	1.4
1096.727	3.5
1097.146	-7.8
1097.566	-0.8
1097.985	-8.5
1098.405	-0.8
1098.824	-6.5
1099.243	-8.5
1099.662	-11.1
1100.082	-6.5
1100.501	-3.6
1100.92	-7.6
1101.339	-3
1101.758	-7.8
