Data from 20171114-ORNL-Ar_H_NY_Subt18_08-08-27-941.txt Node
Date: Tue Nov 14 08:08:27 EST 2017
User: Ender
Spectrometer: HR+D1039
Trigger mode: 0
Integration Time (sec): 2.730000E-2
Scans to average: 10
Electric dark correction enabled: true
Nonlinearity correction enabled: false
Boxcar width: 0
XAxis mode: Wavelengths
Number of Pixels in Spectrum: 2048
>>>>>Begin Spectral Data<<<<<
187.836	-5.36
188.309	-5.36
188.782	-5.36
189.255	-0.76
189.728	-0.26
190.201	1.44
190.674	2.44
191.147	6.54
191.619	-4.86
192.092	6.34
192.565	1.14
193.038	1.34
193.511	3.64
193.984	-3.36
194.456	2.34
194.929	1.44
195.402	-6.86
195.874	-5.26
196.347	-4.36
196.82	-6.66
197.292	5.44
197.765	-2.76
198.237	-12.76
198.71	0.84
199.182	-4.06
199.655	-3.56
200.127	-0.06
200.6	-4.46
201.072	-4.26
201.544	-3.96
202.017	-1.46
202.489	1.74
202.961	-2.26
203.433	-6.56
203.906	-6.46
204.378	-5.56
204.85	-4.36
205.322	-10.06
205.794	-3.66
206.266	-9.96
206.739	-7.86
207.211	-4.66
207.683	-9.86
208.155	-1.76
208.627	-10.86
209.099	-3.96
209.57	-13.36
210.042	1.94
210.514	-6.26
210.986	-0.06
211.458	-9.16
211.93	-2.26
212.402	0.24
212.873	-8.36
213.345	-9.06
213.817	-12.56
214.288	-4.76
214.76	-9.76
215.232	-4.46
215.703	-5.26
216.175	-5.26
216.646	-11.06
217.118	-11.16
217.589	-3.66
218.061	-2.26
218.532	-4.56
219.004	-4.56
219.475	-3.16
219.946	-3.46
220.418	-6.86
220.889	-1.76
221.36	2.64
221.832	-0.56
222.303	-5.36
222.774	-4.16
223.245	-6.46
223.717	-7.36
224.188	-5.66
224.659	-5.66
225.13	-6.86
225.601	-2.66
226.072	1.14
226.543	-3.56
227.014	4.24
227.485	-1.06
227.956	-8.86
228.427	-3.36
228.898	2.94
229.369	2.44
229.839	1.44
230.31	-13.36
230.781	6.34
231.252	-6.46
231.722	-8.26
232.193	-5.46
232.664	3.04
233.135	-3.66
233.605	-4.16
234.076	-11.76
234.546	-4.86
235.017	4.44
235.487	-2.46
235.958	-2.36
236.428	-7.66
236.899	-2.96
237.369	0.74
237.84	-8.46
238.31	-0.96
238.78	-3.46
239.251	-4.06
239.721	-6.16
240.191	-1.76
240.662	-4.26
241.132	-1.06
241.602	-5.66
242.072	-2.56
242.542	2.44
243.013	2.24
243.483	0.64
243.953	1.64
244.423	-1.26
244.893	-10.86
245.363	-3.16
245.833	0.74
246.303	-4.56
246.773	5.44
247.243	0.54
247.712	1.34
248.182	0.34
248.652	-1.06
249.122	-8.86
249.592	2.64
250.061	3.14
250.531	8.34
251.001	-4.06
251.471	5.44
251.94	2.74
252.41	-0.66
252.879	-6.76
253.349	8.04
253.818	5.34
254.288	-1.26
254.757	-1.76
255.227	-1.26
255.696	-2.16
256.166	2.64
256.635	0.14
257.105	2.94
257.574	0.64
258.043	-2.46
258.513	-0.26
258.982	1.44
259.451	-5.36
259.92	-0.76
260.389	6.44
260.859	4.74
261.328	3.54
261.797	3.64
262.266	-1.76
262.735	3.04
263.204	-0.86
263.673	-4.06
264.142	0.34
264.611	-1.66
265.08	-0.46
265.549	-1.86
266.018	6.34
266.487	3.34
266.955	1.54
267.424	4.04
267.893	4.24
268.362	4.14
268.83	1.94
269.299	8.54
269.768	5.54
270.236	2.54
270.705	-1.96
271.174	1.14
271.642	-0.56
272.111	5.44
272.579	6.74
273.048	2.84
273.516	6.74
273.985	7.04
274.453	7.54
274.922	10.04
275.39	9.14
275.858	-1.46
276.327	10.34
276.795	17.14
277.263	6.24
277.731	13.24
278.2	8.64
278.668	6.94
279.136	14.04
279.604	4.24
280.072	11.64
280.54	9.94
281.008	6.94
281.477	10.84
281.945	13.34
282.413	12.04
282.881	13.74
283.348	5.34
283.816	11.84
284.284	11.24
284.752	19.64
285.22	7.54
285.688	12.54
286.156	13.64
286.623	19.14
287.091	13.84
287.559	14.84
288.026	12.34
288.494	15.74
288.962	4.94
289.429	9.64
289.897	13.14
290.364	18.04
290.832	12.34
291.3	14.84
291.767	13.84
292.234	14.54
292.702	5.24
293.169	14.14
293.637	24.04
294.104	15.54
294.571	7.84
295.039	7.34
295.506	16.54
295.973	14.24
296.44	5.74
296.908	17.64
297.375	15.94
297.842	13.84
298.309	15.04
298.776	12.74
299.243	23.14
299.71	9.04
300.177	21.14
300.644	26.84
301.111	20.94
301.578	19.34
302.045	13.04
302.512	17.34
302.979	22.54
303.446	21.54
303.913	23.94
304.379	16.84
304.846	26.04
305.313	22.74
305.78	25.64
306.246	24.74
306.713	30.04
307.18	25.34
307.646	26.74
308.113	24.14
308.579	17.14
309.046	30.64
309.512	27.14
309.979	19.64
310.445	26.24
310.912	33.64
311.378	29.84
311.845	28.44
312.311	27.64
312.777	31.54
313.244	35.64
313.71	33.24
314.176	30.84
314.642	21.74
315.109	25.94
315.575	33.04
316.041	39.04
316.507	26.44
316.973	34.34
317.439	25.64
317.905	24.54
318.371	28.54
318.837	30.74
319.303	29.44
319.769	29.34
320.235	24.24
320.701	35.14
321.167	34.04
321.633	28.24
322.099	34.54
322.564	38.54
323.03	36.54
323.496	35.64
323.962	36.14
324.427	35.54
324.893	40.84
325.359	36.14
325.824	37.64
326.29	34.64
326.755	39.54
327.221	37.44
327.686	38.04
328.152	45.94
328.617	39.94
329.083	46.44
329.548	55.84
330.014	42.24
330.479	44.34
330.944	41.64
331.41	43.04
331.875	43.74
332.34	44.84
332.805	46.04
333.271	40.24
333.736	44.54
334.201	45.54
334.666	44.14
335.131	45.74
335.596	50.54
336.061	49.64
336.526	40.34
336.991	47.44
337.456	57.34
337.921	56.94
338.386	40.64
338.851	44.74
339.316	48.84
339.781	53.74
340.246	56.04
340.711	43.54
341.175	52.94
341.64	52.34
342.105	50.14
342.569	55.24
343.034	57.84
343.499	54.44
343.963	52.54
344.428	60.94
344.893	60.54
345.357	57.74
345.822	56.84
346.286	68.44
346.751	81.94
347.215	66.34
347.679	70.14
348.144	96.64
348.608	89.04
349.073	70.04
349.537	78.04
350.001	83.74
350.465	91.84
350.93	87.84
351.394	90.44
351.858	77.84
352.322	85.54
352.786	86.74
353.25	103.14
353.715	117.14
354.179	105.14
354.643	125.74
355.107	129.24
355.571	107.54
356.035	103.74
356.498	116.44
356.962	117.64
357.426	128.04
357.89	121.64
358.354	89.44
358.818	84.84
359.281	83.34
359.745	76.04
360.209	76.34
360.673	71.04
361.136	75.04
361.6	84.34
362.064	79.94
362.527	80.14
362.991	102.34
363.454	85.24
363.918	77.74
364.381	86.14
364.845	85.54
365.308	87.84
365.772	84.74
366.235	87.54
366.698	85.84
367.162	83.24
367.625	86.14
368.088	92.44
368.552	88.64
369.015	87.54
369.478	101.24
369.941	95.84
370.404	93.44
370.867	101.84
371.331	109.34
371.794	115.14
372.257	104.74
372.72	107.24
373.183	101.54
373.646	98.04
374.109	94.84
374.572	108.34
375.035	101.34
375.497	107.24
375.96	108.04
376.423	99.64
376.886	113.84
377.349	110.44
377.811	103.54
378.274	99.84
378.737	108.84
379.199	118.74
379.662	112.44
380.125	115.44
380.587	113.64
381.05	111.94
381.512	117.54
381.975	122.24
382.437	123.44
382.9	120.64
383.362	125.44
383.825	138.74
384.287	135.74
384.75	127.94
385.212	125.94
385.674	133.74
386.136	136.64
386.599	128.24
387.061	128.84
387.523	132.04
387.985	127.24
388.447	134.24
388.91	131.24
389.372	131.04
389.834	133.64
390.296	141.54
390.758	139.24
391.22	144.74
391.682	158.94
392.144	169.74
392.606	153.64
393.068	145.64
393.529	164.24
393.991	146.04
394.453	132.14
394.915	134.14
395.377	143.04
395.838	150.14
396.3	144.44
396.762	146.34
397.224	139.54
397.685	137.94
398.147	140.94
398.608	139.04
399.07	135.14
399.531	143.64
399.993	158.84
400.454	169.94
400.916	159.14
401.377	153.74
401.839	164.94
402.3	159.14
402.762	171.44
403.223	186.84
403.684	180.94
404.145	169.54
404.607	165.04
405.068	170.14
405.529	179.44
405.99	196.24
406.451	184.74
406.913	184.44
407.374	175.24
407.835	170.94
408.296	169.74
408.757	173.94
409.218	197.84
409.679	186.94
410.14	180.14
410.601	177.34
411.062	190.34
411.522	189.84
411.983	188.14
412.444	180.24
412.905	190.54
413.366	196.84
413.826	208.64
414.287	235.04
414.748	283.44
415.208	272.84
415.669	227.34
416.13	222.24
416.59	222.14
417.051	232.24
417.511	238.34
417.972	256.24
418.432	266.04
418.893	309.74
419.353	271.74
419.814	212.24
420.274	201.74
420.734	194.94
421.195	210.24
421.655	203.04
422.115	207.04
422.576	208.54
423.036	220.54
423.496	229.74
423.956	227.64
424.416	244.44
424.876	283.64
425.336	281.24
425.797	281.44
426.257	274.24
426.717	259.54
427.177	245.14
427.637	234.44
428.097	245.04
428.556	257.14
429.016	281.94
429.476	277.44
429.936	286.74
430.396	291.24
430.856	303.54
431.315	327.84
431.775	364.34
432.235	394.84
432.694	367.64
433.154	373.34
433.614	414.64
434.073	358.34
434.533	301.94
434.993	289.14
435.452	297.84
435.912	316.64
436.371	297.64
436.83	297.14
437.29	275.14
437.749	269.94
438.209	267.04
438.668	291.24
439.127	320.24
439.587	281.24
440.046	265.14
440.505	278.74
440.964	294.34
441.424	336.44
441.883	336.44
442.342	278.14
442.801	245.54
443.26	240.44
443.719	236.94
444.178	237.44
444.637	225.34
445.096	236.54
445.555	236.94
446.014	239.14
446.473	247.84
446.932	257.84
447.391	250.74
447.849	250.14
448.308	242.24
448.767	245.84
449.226	255.14
449.685	251.24
450.143	265.14
450.602	258.94
451.061	246.24
451.519	256.84
451.978	250.64
452.436	256.24
452.895	257.54
453.353	278.54
453.812	260.24
454.27	256.04
454.729	258.24
455.187	258.64
455.646	264.44
456.104	270.04
456.562	285.14
457.021	292.64
457.479	286.54
457.937	296.44
458.395	291.34
458.854	272.44
459.312	279.84
459.77	302.84
460.228	283.94
460.686	260.34
461.144	272.84
461.602	268.14
462.06	269.24
462.518	278.94
462.976	276.94
463.434	277.74
463.892	286.44
464.35	299.44
464.808	314.24
465.266	289.14
465.724	297.94
466.181	299.34
466.639	296.34
467.097	318.14
467.555	332.24
468.012	333.04
468.47	336.84
468.928	362.04
469.385	381.04
469.843	373.44
470.3	379.94
470.758	399.14
471.215	419.54
471.673	441.44
472.13	446.04
472.588	460.54
473.045	405.84
473.503	408.94
473.96	430.34
474.417	433.84
474.875	475.74
475.332	502.74
475.789	509.64
476.246	496.94
476.704	524.34
477.161	547.74
477.618	557.24
478.075	593.54
478.532	658.94
478.989	735.44
479.446	846.44
479.903	806.64
480.36	838.54
480.817	881.04
481.274	977.74
481.731	1069.94
482.188	1139.84
482.645	1280.34
483.102	1360.74
483.558	1491.24
484.015	1532.94
484.472	1506.44
484.929	1466.64
485.385	1405.74
485.842	1401.14
486.299	1344.54
486.755	1311.24
487.212	1104.64
487.668	943.24
488.125	884.74
488.582	807.44
489.038	787.74
489.494	749.94
489.951	723.24
490.407	711.64
490.864	679.34
491.32	681.94
491.776	683.84
492.233	700.14
492.689	662.84
493.145	651.84
493.602	645.24
494.058	657.24
494.514	656.34
494.97	686.14
495.426	693.44
495.882	664.04
496.338	651.74
496.794	664.14
497.251	659.74
497.707	671.44
498.163	676.24
498.618	670.14
499.074	680.64
499.53	712.54
499.986	710.94
500.442	687.14
500.898	665.74
501.354	655.94
501.809	657.04
502.265	666.14
502.721	684.04
503.177	680.24
503.632	691.34
504.088	692.54
504.543	705.54
504.999	743.64
505.455	694.84
505.91	683.44
506.366	678.54
506.821	670.44
507.277	666.04
507.732	680.04
508.187	678.14
508.643	679.14
509.098	683.34
509.553	702.54
510.009	716.54
510.464	716.34
510.919	740.94
511.375	740.34
511.83	761.44
512.285	773.64
512.74	810.94
513.195	835.24
513.65	819.14
514.105	809.34
514.56	822.84
515.015	835.24
515.47	861.64
515.925	837.54
516.38	853.24
516.835	844.94
517.29	829.04
517.745	826.54
518.2	816.54
518.655	803.84
519.109	795.54
519.564	792.44
520.019	770.64
520.474	773.94
520.928	774.14
521.383	771.84
521.838	767.44
522.292	762.94
522.747	763.24
523.201	764.34
523.656	759.44
524.11	743.04
524.565	743.24
525.019	739.14
525.474	742.34
525.928	744.94
526.382	746.34
526.837	747.34
527.291	747.34
527.745	756.34
528.2	749.34
528.654	740.54
529.108	738.64
529.562	733.04
530.016	739.74
530.47	742.04
530.925	741.54
531.379	738.34
531.833	753.24
532.287	743.24
532.741	748.54
533.195	748.64
533.649	745.24
534.103	768.94
534.556	760.54
535.01	751.24
535.464	742.74
535.918	756.34
536.372	765.04
536.826	771.24
537.279	746.74
537.733	758.84
538.187	753.64
538.64	757.94
539.094	762.74
539.548	774.64
540.001	780.44
540.455	775.04
540.908	780.44
541.362	780.44
541.815	794.74
542.269	809.04
542.722	812.44
543.175	820.74
543.629	821.84
544.082	837.04
544.536	841.14
544.989	843.74
545.442	850.14
545.895	844.74
546.349	850.74
546.802	846.84
547.255	859.04
547.708	857.34
548.161	875.04
548.614	880.14
549.067	882.34
549.52	881.64
549.973	855.84
550.426	860.44
550.879	841.24
551.332	854.34
551.785	863.44
552.238	861.94
552.691	879.34
553.144	888.14
553.596	912.04
554.049	922.34
554.502	958.64
554.955	971.14
555.407	968.04
555.86	953.74
556.313	954.14
556.765	941.54
557.218	948.54
557.67	941.64
558.123	934.24
558.576	930.54
559.028	937.64
559.48	945.04
559.933	931.44
560.385	903.84
560.838	872.04
561.29	846.34
561.742	843.74
562.195	823.44
562.647	822.34
563.099	833.34
563.551	828.24
564.004	836.54
564.456	838.14
564.908	813.24
565.36	794.94
565.812	770.84
566.264	769.64
566.716	770.34
567.168	761.04
567.62	763.14
568.072	746.74
568.524	740.74
568.976	729.84
569.428	731.94
569.88	724.64
570.332	733.04
570.784	731.64
571.235	732.24
571.687	751.84
572.139	758.94
572.59	765.74
573.042	767.24
573.494	750.14
573.945	755.24
574.397	735.14
574.849	746.44
575.3	741.44
575.752	737.44
576.203	724.24
576.655	731.24
577.106	725.84
577.557	717.04
578.009	712.14
578.46	713.04
578.912	704.64
579.363	707.14
579.814	713.14
580.265	707.64
580.717	710.54
581.168	718.14
581.619	720.04
582.07	729.24
582.521	718.34
582.972	712.14
583.423	739.34
583.875	726.24
584.326	731.94
584.777	750.84
585.227	775.64
585.678	791.24
586.129	810.34
586.58	842.94
587.031	859.04
587.482	901.94
587.933	950.54
588.384	907.24
588.834	853.54
589.285	830.74
589.736	820.14
590.186	826.64
590.637	815.44
591.088	799.24
591.538	791.34
591.989	786.84
592.439	774.84
592.89	754.34
593.34	761.64
593.791	757.94
594.241	751.04
594.692	749.24
595.142	745.14
595.593	744.94
596.043	753.34
596.493	756.64
596.943	748.74
597.394	775.54
597.844	770.84
598.294	781.44
598.744	809.04
599.195	842.34
599.645	875.74
600.095	915.34
600.545	983.84
600.995	1034.74
601.445	1099.04
601.895	1154.04
602.345	1218.74
602.795	1190.54
603.245	1154.54
603.695	1101.04
604.145	1021.84
604.594	978.04
605.044	924.24
605.494	860.64
605.944	818.84
606.393	793.84
606.843	781.34
607.293	785.84
607.743	779.54
608.192	792.24
608.642	802.14
609.091	813.94
609.541	808.34
609.99	819.04
610.44	817.34
610.889	762.74
611.339	748.44
611.788	730.14
612.238	730.94
612.687	746.84
613.136	742.14
613.586	755.54
614.035	745.14
614.484	754.14
614.933	759.44
615.383	747.34
615.832	760.84
616.281	743.94
616.73	709.24
617.179	702.44
617.628	683.84
618.077	669.34
618.526	651.84
618.975	658.44
619.424	646.74
619.873	652.84
620.322	659.64
620.771	645.54
621.22	639.14
621.669	626.54
622.118	626.14
622.567	620.94
623.015	605.64
623.464	610.04
623.913	599.54
624.361	591.54
624.81	593.94
625.259	590.64
625.707	597.74
626.156	586.64
626.604	605.54
627.053	597.44
627.501	597.44
627.95	605.04
628.398	626.64
628.847	611.04
629.295	617.94
629.744	611.94
630.192	607.84
630.64	600.24
631.089	582.14
631.537	578.64
631.985	571.04
632.433	563.84
632.881	558.84
633.33	571.04
633.778	563.94
634.226	563.94
634.674	569.64
635.122	573.44
635.57	584.54
636.018	597.24
636.466	604.84
636.914	592.54
637.362	614.94
637.81	615.24
638.258	628.74
638.705	619.44
639.153	654.04
639.601	662.04
640.049	680.14
640.497	715.94
640.944	734.34
641.392	687.84
641.84	652.54
642.287	620.54
642.735	596.54
643.182	603.14
643.63	596.94
644.078	608.24
644.525	616.04
644.973	619.84
645.42	638.84
645.867	657.84
646.315	678.44
646.762	690.14
647.21	727.54
647.657	754.74
648.104	782.84
648.551	793.84
648.999	861.44
649.446	932.64
649.893	1022.64
650.34	1172.94
650.787	1399.74
651.234	1730.84
651.682	2229.14
652.129	3014.14
652.576	4297.24
653.023	6249.04
653.47	8419.94
653.917	10386.34
654.363	11887.34
654.81	13027.44
655.257	12387.24
655.704	8221.54
656.151	4985.54
656.598	3275.64
657.044	2343.44
657.491	1844.04
657.938	1476.44
658.385	1248.64
658.831	1092.34
659.278	974.74
659.724	870.44
660.171	808.04
660.618	750.24
661.064	713.04
661.511	695.84
661.957	679.34
662.404	669.34
662.85	690.64
663.296	664.04
663.743	597.04
664.189	575.64
664.635	563.84
665.082	564.74
665.528	554.84
665.974	551.24
666.42	546.14
666.867	538.14
667.313	523.24
667.759	490.74
668.205	482.64
668.651	479.14
669.097	479.54
669.543	475.84
669.989	487.64
670.435	475.84
670.881	478.14
671.327	485.74
671.773	500.94
672.219	526.84
672.665	579.24
673.11	634.74
673.556	673.64
674.002	720.54
674.448	698.04
674.893	601.94
675.339	517.24
675.785	476.04
676.23	445.44
676.676	423.84
677.122	407.34
677.567	400.54
678.013	396.24
678.458	385.34
678.904	397.64
679.349	373.84
679.794	381.64
680.24	375.84
680.685	375.84
681.131	372.84
681.576	381.74
682.021	387.14
682.466	381.54
682.912	379.34
683.357	378.74
683.802	410.54
684.247	443.14
684.692	490.64
685.137	541.94
685.583	572.34
686.028	606.24
686.473	558.24
686.918	486.64
687.363	454.74
687.807	424.44
688.252	388.74
688.697	379.04
689.142	365.34
689.587	356.54
690.032	358.24
690.477	377.94
690.921	372.74
691.366	417.84
691.811	436.04
692.255	469.04
692.7	492.14
693.145	561.54
693.589	777.74
694.034	1251.54
694.478	1681.34
694.923	1866.64
695.367	2406.94
695.812	1292.04
696.256	536.24
696.701	399.94
697.145	371.74
697.59	348.44
698.034	341.84
698.478	352.54
698.922	349.54
699.367	346.54
699.811	357.34
700.255	380.74
700.699	416.44
701.143	460.64
701.588	510.84
702.032	543.64
702.476	559.04
702.92	537.74
703.364	543.34
703.808	704.64
704.252	1153.64
704.696	1599.04
705.14	1786.74
705.584	2270.54
706.027	1152.64
706.471	564.34
706.915	424.34
707.359	382.94
707.803	343.14
708.246	334.34
708.69	336.64
709.134	353.64
709.577	340.44
710.021	337.14
710.465	328.34
710.908	324.14
711.352	317.94
711.795	329.84
712.239	377.24
712.682	410.34
713.126	445.44
713.569	497.84
714.012	386.84
714.456	331.54
714.899	310.14
715.342	287.14
715.786	278.44
716.229	278.94
716.672	277.94
717.115	272.54
717.558	274.54
718.002	270.84
718.445	274.04
718.888	305.54
719.331	312.94
719.774	329.74
720.217	326.74
720.66	308.34
721.103	283.64
721.546	280.44
721.989	264.24
722.432	246.64
722.874	252.94
723.317	242.84
723.76	255.04
724.203	276.24
724.645	345.54
725.088	480.94
725.531	618.74
725.974	687.64
726.416	590.04
726.859	325.54
727.301	260.74
727.744	255.24
728.187	247.24
728.629	257.04
729.071	260.84
729.514	277.44
729.956	289.44
730.399	305.44
730.841	310.34
731.283	296.04
731.726	289.24
732.168	286.54
732.61	292.04
733.053	305.44
733.495	339.34
733.937	386.64
734.379	425.74
734.821	470.84
735.263	599.94
735.705	933.74
736.148	1762.24
736.59	2830.54
737.032	3265.84
737.474	2673.84
737.916	884.44
738.357	472.94
738.799	349.44
739.241	317.04
739.683	299.74
740.125	316.14
740.567	323.54
741.008	346.14
741.45	336.14
741.892	345.84
742.334	380.14
742.775	389.74
743.217	373.04
743.658	294.14
744.1	279.34
744.542	287.14
744.983	352.64
745.425	376.84
745.866	373.14
746.307	305.54
746.749	295.24
747.19	356.74
747.632	501.04
748.073	995.34
748.514	2080.04
748.956	3078.64
749.397	3891.24
749.838	3238.14
750.279	3158.74
750.72	1622.04
751.162	597.54
751.603	352.14
752.044	276.24
752.485	232.64
752.926	222.74
753.367	212.14
753.808	200.74
754.249	201.94
754.69	197.04
755.131	193.64
755.572	200.44
756.013	197.54
756.453	193.54
756.894	198.54
757.335	200.74
757.776	208.24
758.216	210.34
758.657	209.64
759.098	221.74
759.538	248.34
759.979	293.54
760.42	420.84
760.86	792.04
761.301	2075.74
761.741	4886.44
762.182	6810.84
762.622	4800.44
763.063	1428.24
763.503	585.84
763.943	359.04
764.384	302.64
764.824	280.04
765.264	279.24
765.705	234.74
766.145	202.74
766.585	191.64
767.025	189.34
767.465	182.74
767.906	200.54
768.346	228.04
768.786	235.04
769.226	231.24
769.666	343.04
770.106	703.64
770.546	1733.14
770.986	2843.54
771.426	2504.04
771.866	857.24
772.306	360.54
772.745	214.74
773.185	183.24
773.625	178.34
774.065	163.24
774.505	178.14
774.944	223.84
775.384	396.44
775.824	633.74
776.263	616.14
776.703	300.84
777.142	168.54
777.582	140.64
778.021	131.34
778.461	127.34
778.9	134.94
779.34	130.94
779.779	125.44
780.219	114.74
780.658	110.74
781.097	114.74
781.537	121.54
781.976	118.04
782.415	112.34
782.855	110.74
783.294	104.64
783.733	112.24
784.172	124.34
784.611	114.44
785.05	114.84
785.489	120.84
785.928	123.84
786.367	124.34
786.806	124.54
787.245	136.24
787.684	147.54
788.123	160.74
788.562	141.14
789.001	132.34
789.44	125.54
789.879	126.44
790.317	119.54
790.756	138.74
791.195	141.14
791.634	156.94
792.072	216.44
792.511	397.14
792.95	1124.24
793.388	2279.34
793.827	2030.24
794.265	728.04
794.704	301.34
795.142	196.34
795.581	158.24
796.019	142.54
796.458	135.54
796.896	133.94
797.334	144.54
797.773	169.04
798.211	236.64
798.649	494.94
799.087	1121.24
799.526	1743.04
799.964	2191.84
800.402	2122.84
800.84	816.84
801.278	324.94
801.716	201.44
802.154	164.94
802.592	162.24
803.03	151.54
803.468	147.34
803.906	154.04
804.344	158.54
804.782	149.94
805.22	150.54
805.658	136.54
806.096	155.04
806.533	168.64
806.971	198.14
807.409	239.74
807.847	355.54
808.284	740.64
808.722	2072.94
809.16	3543.24
809.597	3483.24
810.035	5892.54
810.472	6103.44
810.91	2269.24
811.347	875.44
811.785	433.94
812.222	278.84
812.66	214.54
813.097	179.24
813.535	156.04
813.972	134.24
814.409	123.44
814.846	118.24
815.284	121.84
815.721	107.14
816.158	114.04
816.595	124.74
817.032	167.14
817.47	191.14
817.907	136.04
818.344	109.24
818.781	107.54
819.218	102.84
819.655	135.94
820.092	212.14
820.529	231.14
820.966	189.64
821.403	138.44
821.839	106.44
822.276	103.34
822.713	130.54
823.15	147.04
823.587	129.84
824.023	164.84
824.46	338.84
824.897	983.14
825.333	1439.04
825.77	626.34
826.206	258.54
826.643	150.74
827.08	110.34
827.516	90.74
827.953	84.24
828.389	86.54
828.825	76.34
829.262	69.74
829.698	69.94
830.135	69.04
830.571	65.24
831.007	68.34
831.443	68.44
831.88	66.74
832.316	63.84
832.752	68.64
833.188	68.64
833.624	66.84
834.06	71.54
834.497	72.74
834.933	78.44
835.369	78.84
835.805	66.64
836.241	82.94
836.677	83.94
837.112	94.04
837.548	112.84
837.984	139.64
838.42	219.84
838.856	565.94
839.292	1651.54
839.727	2446.34
840.163	1161.84
840.599	1030.74
841.034	2214.34
841.47	2242.44
841.906	829.54
842.341	351.34
842.777	207.24
843.212	219.24
843.648	196.34
844.083	117.64
844.519	81.14
844.954	76.34
845.39	58.14
845.825	64.44
846.261	58.34
846.696	51.84
847.131	56.74
847.566	61.84
848.002	55.54
848.437	53.94
848.872	65.54
849.307	68.24
849.742	93.84
850.177	200.14
850.613	604.44
851.048	939.84
851.483	411.94
851.918	163.14
852.353	93.44
852.788	56.04
853.223	52.64
853.657	52.04
854.092	50.24
854.527	43.04
854.962	40.34
855.397	50.44
855.832	51.44
856.266	44.84
856.701	43.74
857.136	35.24
857.57	43.24
858.005	57.74
858.44	59.64
858.874	48.54
859.309	54.84
859.743	48.54
860.178	46.64
860.612	40.14
861.047	54.34
861.481	80.94
861.915	76.74
862.35	56.14
862.784	39.14
863.218	38.54
863.653	32.74
864.087	45.64
864.521	53.44
864.955	70.64
865.39	163.24
865.824	180.94
866.258	121.54
866.692	188.04
867.126	196.74
867.56	113.54
867.994	60.64
868.428	36.54
868.862	51.14
869.296	59.34
869.73	60.14
870.164	57.74
870.598	54.44
871.031	37.64
871.465	32.34
871.899	36.74
872.333	26.34
872.766	30.74
873.2	27.44
873.634	26.94
874.067	30.04
874.501	24.94
874.935	34.34
875.368	27.64
875.802	21.84
876.235	25.44
876.669	26.14
877.102	26.84
877.535	30.04
877.969	21.04
878.402	22.34
878.836	16.14
879.269	23.24
879.702	26.04
880.135	24.04
880.569	21.74
881.002	24.24
881.435	19.94
881.868	15.54
882.301	24.04
882.734	23.34
883.167	24.24
883.601	15.74
884.034	21.14
884.467	13.44
884.899	17.84
885.332	21.34
885.765	16.24
886.198	14.74
886.631	14.74
887.064	16.84
887.497	15.64
887.929	23.44
888.362	18.34
888.795	12.14
889.228	14.24
889.66	14.94
890.093	16.54
890.526	17.34
890.958	13.74
891.391	15.24
891.823	20.44
892.256	17.24
892.688	14.14
893.121	16.04
893.553	21.54
893.985	22.84
894.418	17.74
894.85	12.64
895.282	16.04
895.715	18.04
896.147	15.64
896.579	13.74
897.011	10.34
897.444	21.04
897.876	19.74
898.308	20.44
898.74	14.94
899.172	14.04
899.604	24.04
900.036	17.54
900.468	14.64
900.9	16.24
901.332	20.84
901.764	15.24
902.196	16.34
902.628	11.74
903.06	15.04
903.491	32.74
903.923	29.54
904.355	26.24
904.787	29.04
905.218	22.64
905.65	20.64
906.082	13.64
906.513	19.04
906.945	18.14
907.376	18.94
907.808	17.74
908.239	21.24
908.671	21.54
909.102	23.84
909.534	24.74
909.965	45.34
910.397	98.64
910.828	342.54
911.259	494.34
911.691	229.04
912.122	116.14
912.553	53.64
912.984	38.14
913.415	22.74
913.847	31.54
914.278	20.44
914.709	15.04
915.14	11.84
915.571	18.34
916.002	15.04
916.433	21.04
916.864	20.14
917.295	18.24
917.726	20.24
918.157	15.34
918.587	36.54
919.018	18.34
919.449	21.64
919.88	25.34
920.311	33.24
920.741	47.34
921.172	175.84
921.603	163.94
922.033	76.34
922.464	51.64
922.895	24.04
923.325	16.64
923.756	19.64
924.186	12.84
924.617	15.74
925.047	27.94
925.478	26.94
925.908	18.94
926.338	13.74
926.769	12.44
927.199	15.84
927.629	9.04
928.06	17.94
928.49	14.54
928.92	11.34
929.35	10.24
929.78	11.34
930.21	4.24
930.641	4.54
931.071	6.94
931.501	0.24
931.931	13.44
932.361	2.94
932.791	2.34
933.221	1.94
933.651	5.24
934.08	21.74
934.51	31.84
934.94	12.44
935.37	14.24
935.8	7.44
936.229	10.74
936.659	13.44
937.089	0.94
937.519	12.54
937.948	19.64
938.378	12.84
938.807	4.74
939.237	1.14
939.666	5.74
940.096	-5.56
940.525	-0.66
940.955	0.84
941.384	5.24
941.814	-2.16
942.243	-3.06
942.672	0.54
943.102	-1.06
943.531	2.14
943.96	4.54
944.39	-0.46
944.819	0.34
945.248	0.14
945.677	5.14
946.106	5.24
946.535	2.44
946.964	0.54
947.393	4.54
947.822	3.64
948.251	-5.16
948.68	-0.16
949.109	-0.46
949.538	4.94
949.967	-0.66
950.396	-2.76
950.825	-3.26
951.254	-6.96
951.682	-8.56
952.111	-3.46
952.54	1.54
952.969	-7.26
953.397	-3.46
953.826	2.74
954.254	-5.76
954.683	-2.86
955.112	-2.56
955.54	4.54
955.969	1.14
956.397	0.34
956.826	-1.96
957.254	3.44
957.682	-2.06
958.111	4.84
958.539	-0.56
958.967	-2.96
959.396	-4.26
959.824	3.04
960.252	2.34
960.68	-5.76
961.109	-5.36
961.537	-3.46
961.965	3.04
962.393	1.44
962.821	-4.06
963.249	-1.66
963.677	5.84
964.105	2.34
964.533	46.44
964.961	40.74
965.389	19.64
965.817	3.84
966.245	1.44
966.672	4.44
967.1	-6.86
967.528	0.64
967.956	-7.66
968.383	-3.06
968.811	-8.86
969.239	-2.16
969.666	-3.76
970.094	1.74
970.522	-4.76
970.949	-2.36
971.377	-8.06
971.804	-2.76
972.232	0.64
972.659	-0.36
973.087	-0.86
973.514	-3.56
973.941	-11.06
974.369	4.44
974.796	0.14
975.223	-1.96
975.651	-6.16
976.078	-0.96
976.505	-0.96
976.932	7.14
977.359	10.94
977.786	20.44
978.214	4.84
978.641	-7.66
979.068	-3.36
979.495	-1.76
979.922	0.24
980.349	-4.66
980.776	0.14
981.202	-0.86
981.629	4.04
982.056	-2.26
982.483	-4.96
982.91	-0.36
983.337	-6.16
983.763	1.14
984.19	-2.26
984.617	-3.96
985.043	-5.06
985.47	-4.66
985.897	-3.56
986.323	-7.86
986.75	3.04
987.176	-2.46
987.603	-1.16
988.029	0.14
988.456	-4.96
988.882	0.14
989.308	-6.16
989.735	-2.66
990.161	0.04
990.587	-12.26
991.014	-3.06
991.44	0.54
991.866	-0.16
992.292	-6.66
992.719	-2.26
993.145	2.54
993.571	-8.66
993.997	-3.76
994.423	-2.16
994.849	-8.56
995.275	-2.46
995.701	-1.66
996.127	-3.56
996.553	-1.06
996.979	-6.56
997.405	1.44
997.83	-4.16
998.256	-9.76
998.682	-15.16
999.108	-12.56
999.534	-1.56
999.959	0.64
1000.385	-1.66
1000.811	-3.16
1001.236	-7.76
1001.662	-9.06
1002.087	-11.26
1002.513	-1.76
1002.938	0.14
1003.364	-12.16
1003.789	-4.76
1004.215	4.44
1004.64	-5.76
1005.066	0.14
1005.491	-0.96
1005.916	-6.56
1006.342	-6.56
1006.767	-9.86
1007.192	1.34
1007.617	-12.16
1008.042	-6.36
1008.468	-7.26
1008.893	-7.66
1009.318	-0.46
1009.743	-3.76
1010.168	1.64
1010.593	5.34
1011.018	-4.96
1011.443	-0.26
1011.868	2.94
1012.293	0.64
1012.718	-4.46
1013.143	-1.16
1013.567	-3.76
1013.992	-3.36
1014.417	-14.66
1014.842	-0.56
1015.267	-5.76
1015.691	-3.86
1016.116	1.24
1016.541	-0.86
1016.965	-5.76
1017.39	-0.06
1017.814	3.04
1018.239	1.04
1018.663	-2.76
1019.088	-13.26
1019.512	-4.56
1019.937	-4.46
1020.361	-6.26
1020.785	-7.66
1021.21	-4.36
1021.634	-4.86
1022.058	-2.76
1022.483	0.74
1022.907	-6.16
1023.331	-10.86
1023.755	-3.96
1024.179	0.14
1024.604	-5.26
1025.028	-3.46
1025.452	-3.16
1025.876	0.24
1026.3	1.54
1026.724	-11.86
1027.148	1.64
1027.572	-3.56
1027.996	-2.56
1028.42	-1.26
1028.843	-2.26
1029.267	-5.96
1029.691	-7.06
1030.115	-8.16
1030.539	-6.26
1030.962	-6.76
1031.386	-10.26
1031.81	-5.26
1032.233	-4.16
1032.657	-3.86
1033.08	-2.36
1033.504	-3.56
1033.927	-7.66
1034.351	-5.36
1034.774	-8.16
1035.198	-4.66
1035.621	-9.56
1036.045	-3.36
1036.468	1.44
1036.891	-11.56
1037.315	-10.96
1037.738	-11.56
1038.161	-5.06
1038.584	-5.76
1039.008	-2.46
1039.431	-4.96
1039.854	-6.26
1040.277	-10.46
1040.7	-6.36
1041.123	2.44
1041.546	-5.06
1041.969	-8.46
1042.392	-5.66
1042.815	-10.16
1043.238	-0.56
1043.661	-0.16
1044.084	-9.96
1044.507	-5.76
1044.93	-3.16
1045.352	-7.66
1045.775	-2.36
1046.198	-6.06
1046.621	0.64
1047.043	3.64
1047.466	8.04
1047.889	-1.36
1048.311	-6.96
1048.734	-0.86
1049.156	-7.26
1049.579	-3.56
1050.001	-7.76
1050.424	-2.66
1050.846	1.84
1051.269	-8.76
1051.691	-10.16
1052.113	-9.66
1052.536	-1.66
1052.958	-0.86
1053.38	-10.86
1053.802	-15.86
1054.225	2.54
1054.647	-9.66
1055.069	-8.36
1055.491	-1.06
1055.913	-10.86
1056.335	-8.46
1056.757	-10.96
1057.179	-9.86
1057.601	-7.06
1058.023	-4.36
1058.445	-5.26
1058.867	-8.36
1059.289	-2.06
1059.711	-9.96
1060.133	-1.06
1060.555	-7.46
1060.976	-3.86
1061.398	-10.86
1061.82	-6.16
1062.241	-7.26
1062.663	-8.96
1063.085	-5.06
1063.506	-2.06
1063.928	-6.46
1064.35	-2.56
1064.771	-17.76
1065.193	-3.36
1065.614	-3.66
1066.035	-0.96
1066.457	-9.66
1066.878	-1.76
1067.3	-4.16
1067.721	-1.56
1068.142	-3.86
1068.564	-3.26
1068.985	-6.36
1069.406	-5.96
1069.827	-5.86
1070.248	-2.76
1070.67	-5.16
1071.091	-8.26
1071.512	-5.16
1071.933	-6.16
1072.354	-10.96
1072.775	-10.56
1073.196	-10.36
1073.617	-1.76
1074.038	-5.46
1074.459	-8.76
1074.88	-6.56
1075.3	-0.96
1075.721	-4.46
1076.142	-2.46
1076.563	-7.36
1076.983	-6.96
1077.404	-12.16
1077.825	-5.76
1078.246	-5.26
1078.666	-6.46
1079.087	-10.46
1079.507	-5.56
1079.928	-2.86
1080.348	-6.66
1080.769	-1.06
1081.189	-6.66
1081.61	-4.36
1082.03	-11.26
1082.451	-5.36
1082.871	-2.16
1083.291	-10.06
1083.711	-6.56
1084.132	-2.66
1084.552	-9.96
1084.972	-1.66
1085.392	-6.86
1085.813	-5.96
1086.233	-7.76
1086.653	2.74
1087.073	-4.86
1087.493	-8.76
1087.913	-14.46
1088.333	-10.56
1088.753	-3.86
1089.173	4.64
1089.593	-8.16
1090.013	-3.06
1090.433	2.04
1090.852	-7.26
1091.272	-4.66
1091.692	-0.06
1092.112	-4.36
1092.531	-9.26
1092.951	-11.76
1093.371	-3.26
1093.79	-3.26
1094.21	-9.66
1094.63	-6.36
1095.049	-4.76
1095.469	-5.86
1095.888	-5.26
1096.308	3.74
1096.727	1.64
1097.146	-3.46
1097.566	2.24
1097.985	-3.06
1098.405	-1.06
1098.824	-4.56
1099.243	-9.36
1099.662	-13.26
1100.082	-5.96
1100.501	0.04
1100.92	-7.76
1101.339	-4.06
1101.758	-6.76
