Data from 20171114-ORNL-Ar_H_NY_Subt18_08-04-56-657.txt Node
Date: Tue Nov 14 08:04:56 EST 2017
User: Ender
Spectrometer: HR+D1039
Trigger mode: 0
Integration Time (sec): 2.730000E-2
Scans to average: 10
Electric dark correction enabled: true
Nonlinearity correction enabled: false
Boxcar width: 0
XAxis mode: Wavelengths
Number of Pixels in Spectrum: 2048
>>>>>Begin Spectral Data<<<<<
187.836	-5.56
188.309	-5.56
188.782	-5.56
189.255	0.34
189.728	1.44
190.201	6.54
190.674	1.74
191.147	0.84
191.619	-6.36
192.092	-2.86
192.565	5.24
193.038	-1.36
193.511	-0.96
193.984	-1.16
194.456	-0.26
194.929	-0.06
195.402	0.14
195.874	2.24
196.347	-1.46
196.82	-4.16
197.292	3.54
197.765	-1.16
198.237	-6.36
198.71	-0.56
199.182	-2.26
199.655	-0.96
200.127	0.64
200.6	-3.16
201.072	-3.26
201.544	-0.86
202.017	-3.16
202.489	2.04
202.961	-1.06
203.433	4.54
203.906	-6.66
204.378	-3.46
204.85	-2.46
205.322	-15.76
205.794	-1.26
206.266	-5.26
206.739	-3.26
207.211	6.94
207.683	-9.96
208.155	-4.76
208.627	-2.56
209.099	-3.56
209.57	-4.36
210.042	-2.46
210.514	-11.16
210.986	-4.06
211.458	-9.26
211.93	-9.96
212.402	4.14
212.873	-7.56
213.345	-4.16
213.817	-13.16
214.288	-5.36
214.76	-10.16
215.232	-1.06
215.703	-1.26
216.175	-1.06
216.646	-7.66
217.118	-6.06
217.589	-1.76
218.061	0.54
218.532	-3.26
219.004	-7.46
219.475	-7.26
219.946	-3.56
220.418	-6.56
220.889	7.74
221.36	3.84
221.832	-5.06
222.303	-10.46
222.774	-0.16
223.245	-3.36
223.717	-5.96
224.188	-3.36
224.659	-8.96
225.13	-8.16
225.601	-3.26
226.072	-2.26
226.543	2.34
227.014	2.54
227.485	-1.16
227.956	-5.36
228.427	-1.96
228.898	-1.06
229.369	6.54
229.839	-2.26
230.31	-5.66
230.781	5.64
231.252	3.04
231.722	-0.46
232.193	8.14
232.664	-0.96
233.135	0.14
233.605	1.94
234.076	0.94
234.546	4.44
235.017	4.64
235.487	-5.76
235.958	-2.16
236.428	-1.56
236.899	3.44
237.369	-2.76
237.84	2.84
238.31	8.74
238.78	2.24
239.251	4.14
239.721	5.44
240.191	3.64
240.662	2.44
241.132	3.04
241.602	0.14
242.072	5.64
242.542	6.24
243.013	-3.66
243.483	1.84
243.953	3.84
244.423	1.74
244.893	-0.16
245.363	7.84
245.833	6.54
246.303	-1.06
246.773	8.24
247.243	9.24
247.712	8.94
248.182	11.74
248.652	14.34
249.122	1.34
249.592	14.74
250.061	24.24
250.531	34.24
251.001	17.64
251.471	25.64
251.94	23.14
252.41	12.74
252.879	5.94
253.349	15.34
253.818	11.24
254.288	1.94
254.757	7.74
255.227	7.54
255.696	10.44
256.166	5.34
256.635	12.14
257.105	8.24
257.574	7.44
258.043	15.24
258.513	11.64
258.982	20.74
259.451	8.14
259.92	12.74
260.389	17.34
260.859	23.34
261.328	11.74
261.797	26.44
262.266	7.04
262.735	15.54
263.204	5.34
263.673	3.34
264.142	6.04
264.611	1.34
265.08	-2.36
265.549	1.64
266.018	8.04
266.487	-4.66
266.955	-1.76
267.424	3.34
267.893	4.54
268.362	2.54
268.83	11.14
269.299	8.04
269.768	13.54
270.236	13.24
270.705	3.64
271.174	8.64
271.642	8.04
272.111	13.84
272.579	19.04
273.048	28.14
273.516	34.74
273.985	32.54
274.453	29.44
274.922	19.64
275.39	12.74
275.858	7.04
276.327	10.54
276.795	20.84
277.263	12.34
277.731	38.54
278.2	63.54
278.668	61.34
279.136	52.04
279.604	25.14
280.072	17.74
280.54	12.84
281.008	11.24
281.477	12.44
281.945	12.84
282.413	12.94
282.881	12.84
283.348	9.44
283.816	23.64
284.284	14.94
284.752	26.74
285.22	13.44
285.688	20.04
286.156	27.04
286.623	52.04
287.091	59.94
287.559	28.34
288.026	21.84
288.494	16.04
288.962	5.14
289.429	10.74
289.897	19.94
290.364	17.14
290.832	15.64
291.3	17.84
291.767	14.74
292.234	21.24
292.702	24.44
293.169	20.54
293.637	24.14
294.104	21.14
294.571	16.04
295.039	13.54
295.506	19.64
295.973	24.54
296.44	16.64
296.908	19.04
297.375	28.74
297.842	23.24
298.309	19.74
298.776	16.44
299.243	20.84
299.71	18.74
300.177	23.34
300.644	23.74
301.111	24.74
301.578	24.74
302.045	21.94
302.512	21.24
302.979	30.04
303.446	23.34
303.913	25.74
304.379	25.34
304.846	32.64
305.313	26.84
305.78	27.14
306.246	27.84
306.713	28.64
307.18	26.34
307.646	35.14
308.113	34.14
308.579	26.54
309.046	27.24
309.512	31.34
309.979	22.34
310.445	29.74
310.912	29.94
311.378	33.44
311.845	28.14
312.311	29.74
312.777	35.74
313.244	31.54
313.71	41.54
314.176	33.74
314.642	34.94
315.109	38.84
315.575	42.74
316.041	43.34
316.507	33.64
316.973	43.84
317.439	32.94
317.905	37.64
318.371	38.94
318.837	34.44
319.303	31.34
319.769	38.94
320.235	37.54
320.701	44.74
321.167	43.84
321.633	33.94
322.099	40.04
322.564	45.04
323.03	40.54
323.496	45.74
323.962	47.04
324.427	34.34
324.893	50.34
325.359	41.34
325.824	42.94
326.29	38.34
326.755	43.04
327.221	36.64
327.686	41.24
328.152	49.34
328.617	40.34
329.083	48.24
329.548	47.34
330.014	48.64
330.479	40.54
330.944	38.94
331.41	45.44
331.875	49.74
332.34	44.84
332.805	49.74
333.271	45.94
333.736	44.54
334.201	56.64
334.666	52.04
335.131	55.14
335.596	52.44
336.061	54.54
336.526	46.94
336.991	47.64
337.456	60.94
337.921	47.94
338.386	49.24
338.851	48.94
339.316	49.94
339.781	50.94
340.246	50.04
340.711	51.44
341.175	48.84
341.64	49.64
342.105	52.44
342.569	53.24
343.034	57.54
343.499	60.74
343.963	52.44
344.428	64.74
344.893	64.74
345.357	64.94
345.822	61.54
346.286	70.84
346.751	76.84
347.215	65.34
347.679	74.54
348.144	101.44
348.608	77.84
349.073	76.14
349.537	77.54
350.001	82.14
350.465	88.34
350.93	78.04
351.394	81.64
351.858	75.74
352.322	86.54
352.786	88.54
353.25	103.44
353.715	113.94
354.179	97.54
354.643	128.14
355.107	126.24
355.571	101.54
356.035	99.34
356.498	118.84
356.962	125.94
357.426	132.74
357.89	114.64
358.354	94.44
358.818	86.64
359.281	78.34
359.745	80.94
360.209	76.74
360.673	72.94
361.136	85.24
361.6	91.04
362.064	81.84
362.527	83.14
362.991	80.34
363.454	78.64
363.918	81.54
364.381	82.84
364.845	87.74
365.308	91.04
365.772	86.54
366.235	86.64
366.698	81.04
367.162	87.14
367.625	79.64
368.088	86.74
368.552	85.44
369.015	94.24
369.478	98.34
369.941	102.04
370.404	98.84
370.867	99.94
371.331	105.84
371.794	117.14
372.257	109.24
372.72	115.54
373.183	110.94
373.646	108.34
374.109	99.44
374.572	103.14
375.035	102.04
375.497	112.04
375.96	113.64
376.423	102.24
376.886	112.14
377.349	117.14
377.811	107.14
378.274	108.24
378.737	110.24
379.199	108.74
379.662	111.44
380.125	115.94
380.587	111.94
381.05	126.34
381.512	123.74
381.975	135.14
382.437	133.14
382.9	123.74
383.362	136.84
383.825	140.64
384.287	148.74
384.75	140.94
385.212	132.74
385.674	137.54
386.136	132.94
386.599	125.94
387.061	124.34
387.523	134.04
387.985	131.84
388.447	137.84
388.91	138.64
389.372	151.04
389.834	154.34
390.296	141.74
390.758	154.74
391.22	159.54
391.682	198.34
392.144	282.84
392.606	225.54
393.068	162.64
393.529	158.14
393.991	148.04
394.453	140.74
394.915	152.84
395.377	181.34
395.838	206.24
396.3	155.64
396.762	139.34
397.224	134.24
397.685	125.34
398.147	123.64
398.608	129.94
399.07	130.84
399.531	135.74
399.993	139.74
400.454	149.14
400.916	141.74
401.377	140.24
401.839	148.34
402.3	147.04
402.762	162.84
403.223	177.64
403.684	164.44
404.145	153.34
404.607	152.94
405.068	163.44
405.529	165.24
405.99	184.94
406.451	175.14
406.913	171.54
407.374	157.54
407.835	157.14
408.296	152.54
408.757	171.94
409.218	182.94
409.679	170.04
410.14	173.14
410.601	173.44
411.062	174.14
411.522	186.54
411.983	181.54
412.444	169.44
412.905	178.14
413.366	176.24
413.826	186.64
414.287	209.64
414.748	249.34
415.208	233.04
415.669	200.94
416.13	199.24
416.59	193.64
417.051	204.24
417.511	208.04
417.972	228.44
418.432	241.94
418.893	278.74
419.353	247.14
419.814	197.54
420.274	175.54
420.734	182.94
421.195	191.74
421.655	187.04
422.115	181.94
422.576	185.54
423.036	190.34
423.496	199.04
423.956	206.14
424.416	219.64
424.876	252.84
425.336	249.44
425.797	249.24
426.257	253.14
426.717	233.24
427.177	227.14
427.637	215.14
428.097	224.94
428.556	241.74
429.016	253.34
429.476	259.44
429.936	265.14
430.396	266.24
430.856	282.84
431.315	295.94
431.775	340.14
432.235	365.24
432.694	348.84
433.154	348.44
433.614	379.14
434.073	322.84
434.533	277.14
434.993	257.94
435.452	272.04
435.912	281.74
436.371	273.94
436.83	270.64
437.29	264.24
437.749	240.04
438.209	233.14
438.668	255.44
439.127	277.84
439.587	253.94
440.046	244.04
440.505	258.44
440.964	269.84
441.424	316.14
441.883	304.34
442.342	250.74
442.801	219.14
443.26	214.74
443.719	216.74
444.178	208.94
444.637	196.34
445.096	208.64
445.555	212.24
446.014	216.24
446.473	213.24
446.932	218.14
447.391	212.54
447.849	215.14
448.308	210.04
448.767	212.24
449.226	226.54
449.685	224.84
450.143	239.64
450.602	231.74
451.061	217.64
451.519	224.54
451.978	222.24
452.436	224.54
452.895	231.34
453.353	244.94
453.812	228.64
454.27	235.74
454.729	235.84
455.187	236.04
455.646	240.34
456.104	243.44
456.562	245.14
457.021	254.44
457.479	250.04
457.937	262.44
458.395	251.54
458.854	235.84
459.312	240.84
459.77	263.24
460.228	245.34
460.686	230.94
461.144	229.84
461.602	232.04
462.06	233.04
462.518	239.44
462.976	248.24
463.434	250.34
463.892	254.24
464.35	262.14
464.808	282.74
465.266	254.74
465.724	253.74
466.181	260.04
466.639	260.64
467.097	278.24
467.555	287.54
468.012	296.04
468.47	292.54
468.928	314.94
469.385	326.94
469.843	330.14
470.3	342.44
470.758	355.24
471.215	361.94
471.673	387.84
472.13	390.24
472.588	396.64
473.045	354.24
473.503	360.44
473.96	378.04
474.417	386.64
474.875	408.54
475.332	456.84
475.789	442.34
476.246	448.54
476.704	469.14
477.161	487.94
477.618	502.44
478.075	542.54
478.532	591.54
478.989	661.74
479.446	764.84
479.903	741.14
480.36	773.34
480.817	844.64
481.274	945.54
481.731	1049.04
482.188	1139.34
482.645	1275.74
483.102	1381.54
483.558	1520.54
484.015	1555.54
484.472	1534.84
484.929	1500.74
485.385	1442.74
485.842	1400.94
486.299	1341.94
486.755	1271.44
487.212	1065.44
487.668	899.14
488.125	821.84
488.582	760.74
489.038	728.84
489.494	685.44
489.951	666.84
490.407	644.74
490.864	629.44
491.32	626.54
491.776	613.84
492.233	622.64
492.689	584.54
493.145	584.04
493.602	572.94
494.058	597.54
494.514	596.64
494.97	609.54
495.426	629.34
495.882	593.64
496.338	579.54
496.794	608.24
497.251	601.34
497.707	617.94
498.163	620.64
498.618	634.34
499.074	631.64
499.53	659.44
499.986	653.64
500.442	626.24
500.898	613.04
501.354	607.44
501.809	624.24
502.265	614.24
502.721	634.04
503.177	647.64
503.632	632.94
504.088	648.74
504.543	681.34
504.999	680.14
505.455	630.14
505.91	609.54
506.366	604.94
506.821	593.74
507.277	597.34
507.732	593.84
508.187	604.14
508.643	608.54
509.098	607.24
509.553	629.34
510.009	641.34
510.464	641.94
510.919	662.24
511.375	667.54
511.83	680.34
512.285	700.14
512.74	730.64
513.195	751.54
513.65	753.24
514.105	735.84
514.56	747.14
515.015	769.84
515.47	782.34
515.925	764.44
516.38	769.64
516.835	772.14
517.29	757.14
517.745	754.44
518.2	738.64
518.655	723.44
519.109	718.84
519.564	721.84
520.019	705.14
520.474	705.04
520.928	692.84
521.383	693.54
521.838	678.64
522.292	686.54
522.747	694.54
523.201	675.14
523.656	666.04
524.11	663.14
524.565	651.64
525.019	656.74
525.474	668.64
525.928	672.14
526.382	672.54
526.837	659.44
527.291	672.14
527.745	661.94
528.2	670.74
528.654	663.64
529.108	662.14
529.562	656.54
530.016	659.84
530.47	658.84
530.925	659.54
531.379	669.24
531.833	678.54
532.287	666.04
532.741	676.74
533.195	671.14
533.649	689.94
534.103	685.44
534.556	688.14
535.01	684.94
535.464	674.04
535.918	687.24
536.372	687.34
536.826	689.74
537.279	676.14
537.733	683.34
538.187	687.74
538.64	685.74
539.094	692.54
539.548	699.94
540.001	692.94
540.455	687.54
540.908	700.84
541.362	699.84
541.815	719.84
542.269	719.64
542.722	725.24
543.175	724.54
543.629	726.94
544.082	739.64
544.536	756.14
544.989	743.44
545.442	758.44
545.895	750.44
546.349	752.14
546.802	751.64
547.255	757.84
547.708	758.94
548.161	766.34
548.614	776.64
549.067	782.84
549.52	783.34
549.973	770.64
550.426	766.24
550.879	750.94
551.332	759.74
551.785	762.24
552.238	771.14
552.691	787.54
553.144	781.14
553.596	805.64
554.049	816.54
554.502	844.34
554.955	874.54
555.407	860.84
555.86	853.74
556.313	840.74
556.765	841.84
557.218	846.54
557.67	842.54
558.123	832.54
558.576	827.44
559.028	827.84
559.48	834.84
559.933	825.94
560.385	793.54
560.838	767.34
561.29	741.54
561.742	732.44
562.195	717.14
562.647	713.14
563.099	734.14
563.551	727.64
564.004	728.94
564.456	726.04
564.908	718.74
565.36	698.44
565.812	688.64
566.264	692.44
566.716	686.14
567.168	678.64
567.62	687.64
568.072	672.44
568.524	656.34
568.976	645.14
569.428	639.04
569.88	628.24
570.332	634.94
570.784	635.64
571.235	643.24
571.687	655.74
572.139	662.84
572.59	671.04
573.042	672.84
573.494	655.04
573.945	665.64
574.397	644.84
574.849	640.24
575.3	643.34
575.752	641.34
576.203	644.74
576.655	649.54
577.106	629.34
577.557	619.64
578.009	623.74
578.46	618.24
578.912	623.34
579.363	631.14
579.814	631.84
580.265	619.44
580.717	625.34
581.168	629.94
581.619	641.24
582.07	627.94
582.521	640.84
582.972	624.64
583.423	632.04
583.875	634.24
584.326	657.94
584.777	703.24
585.227	770.54
585.678	852.84
586.129	936.74
586.58	1023.14
587.031	1093.84
587.482	1245.04
587.933	1434.94
588.384	1230.64
588.834	909.04
589.285	749.24
589.736	730.54
590.186	718.34
590.637	718.64
591.088	684.04
591.538	691.34
591.989	680.04
592.439	680.44
592.89	662.64
593.34	659.34
593.791	665.74
594.241	648.64
594.692	659.54
595.142	655.24
595.593	645.14
596.043	655.34
596.493	656.84
596.943	670.04
597.394	665.84
597.844	650.74
598.294	676.34
598.744	697.24
599.195	715.94
599.645	744.94
600.095	791.94
600.545	844.74
600.995	893.54
601.445	941.84
601.895	1003.14
602.345	1052.54
602.795	1030.14
603.245	986.24
603.695	944.14
604.145	889.84
604.594	844.64
605.044	787.34
605.494	733.24
605.944	695.84
606.393	685.94
606.843	667.44
607.293	672.34
607.743	673.94
608.192	690.64
608.642	696.84
609.091	702.44
609.541	707.34
609.99	707.24
610.44	710.74
610.889	659.94
611.339	638.84
611.788	636.84
612.238	639.74
612.687	660.64
613.136	658.14
613.586	672.14
614.035	668.54
614.484	704.74
614.933	703.04
615.383	700.14
615.832	676.04
616.281	666.84
616.73	633.54
617.179	614.54
617.628	598.74
618.077	574.94
618.526	568.04
618.975	565.14
619.424	561.44
619.873	562.04
620.322	564.54
620.771	553.64
621.22	539.64
621.669	550.44
622.118	537.74
622.567	534.14
623.015	523.34
623.464	524.64
623.913	515.84
624.361	500.54
624.81	501.44
625.259	507.44
625.707	509.04
626.156	507.34
626.604	507.84
627.053	515.34
627.501	518.64
627.95	522.24
628.398	529.14
628.847	519.44
629.295	522.14
629.744	522.64
630.192	516.14
630.64	517.44
631.089	514.44
631.537	521.54
631.985	536.74
632.433	548.44
632.881	554.24
633.33	604.84
633.778	574.04
634.226	513.74
634.674	512.94
635.122	520.64
635.57	543.24
636.018	559.74
636.466	527.24
636.914	504.84
637.362	516.14
637.81	522.74
638.258	517.84
638.705	531.74
639.153	547.54
639.601	557.44
640.049	586.94
640.497	605.74
640.944	629.24
641.392	580.64
641.84	550.34
642.287	525.64
642.735	512.64
643.182	516.04
643.63	523.04
644.078	524.24
644.525	539.64
644.973	543.04
645.42	538.74
645.867	564.74
646.315	565.14
646.762	600.84
647.21	631.04
647.657	646.34
648.104	683.94
648.551	691.94
648.999	752.24
649.446	823.04
649.893	909.94
650.34	1048.04
650.787	1247.14
651.234	1558.04
651.682	2025.84
652.129	2780.34
652.576	3982.04
653.023	5914.74
653.47	8152.64
653.917	10290.24
654.363	11975.24
654.81	13404.14
655.257	12797.14
655.704	8267.34
656.151	4856.44
656.598	3149.74
657.044	2217.84
657.491	1691.54
657.938	1360.64
658.385	1136.44
658.831	987.64
659.278	871.74
659.724	777.34
660.171	715.04
660.618	648.54
661.064	629.44
661.511	604.84
661.957	592.84
662.404	584.54
662.85	593.14
663.296	560.74
663.743	496.44
664.189	482.84
664.635	474.94
665.082	471.74
665.528	479.04
665.974	461.54
666.42	456.04
666.867	461.64
667.313	442.84
667.759	430.94
668.205	434.84
668.651	438.54
669.097	445.34
669.543	459.54
669.989	421.74
670.435	402.84
670.881	386.94
671.327	401.64
671.773	429.84
672.219	433.24
672.665	482.04
673.11	514.04
673.556	558.44
674.002	591.14
674.448	577.34
674.893	487.54
675.339	420.14
675.785	395.94
676.23	373.74
676.676	343.14
677.122	333.34
677.567	336.64
678.013	326.54
678.458	316.44
678.904	315.54
679.349	301.54
679.794	312.74
680.24	308.44
680.685	304.24
681.131	307.04
681.576	313.74
682.021	314.14
682.466	314.24
682.912	313.54
683.357	313.44
683.802	334.34
684.247	361.54
684.692	401.34
685.137	438.94
685.583	477.14
686.028	507.34
686.473	458.94
686.918	397.14
687.363	368.44
687.807	347.44
688.252	317.44
688.697	319.74
689.142	302.94
689.587	293.14
690.032	289.74
690.477	295.34
690.921	308.54
691.366	337.74
691.811	360.64
692.255	377.24
692.7	403.74
693.145	436.54
693.589	608.54
694.034	978.74
694.478	1346.34
694.923	1548.44
695.367	2046.14
695.812	1075.14
696.256	442.64
696.701	327.94
697.145	308.84
697.59	292.04
698.034	282.04
698.478	289.94
698.922	287.74
699.367	279.74
699.811	290.84
700.255	307.74
700.699	347.74
701.143	373.74
701.588	427.44
702.032	458.04
702.476	457.04
702.92	424.34
703.364	440.74
703.808	552.64
704.252	887.04
704.696	1263.34
705.14	1484.94
705.584	1913.54
706.027	946.64
706.471	459.04
706.915	353.84
707.359	311.04
707.803	277.54
708.246	266.94
708.69	283.44
709.134	270.24
709.577	271.94
710.021	276.34
710.465	268.64
710.908	266.84
711.352	262.54
711.795	274.44
712.239	302.44
712.682	340.24
713.126	365.04
713.569	410.24
714.012	329.94
714.456	288.24
714.899	263.64
715.342	238.44
715.786	225.04
716.229	230.94
716.672	225.64
717.115	222.24
717.558	221.94
718.002	217.04
718.445	232.64
718.888	252.94
719.331	255.54
719.774	272.94
720.217	272.54
720.66	252.74
721.103	233.84
721.546	222.34
721.989	217.54
722.432	206.64
722.874	208.34
723.317	202.74
723.76	209.04
724.203	226.04
724.645	273.64
725.088	383.24
725.531	498.24
725.974	565.64
726.416	485.04
726.859	266.74
727.301	218.64
727.744	215.34
728.187	199.84
728.629	208.24
729.071	206.54
729.514	227.84
729.956	235.64
730.399	249.74
730.841	259.04
731.283	237.14
731.726	240.64
732.168	222.34
732.61	235.44
733.053	246.74
733.495	280.54
733.937	302.64
734.379	349.34
734.821	378.74
735.263	466.64
735.705	714.64
736.148	1342.84
736.59	2253.04
737.032	2743.34
737.474	2229.14
737.916	710.64
738.357	370.04
738.799	291.54
739.241	261.64
739.683	243.84
740.125	251.34
740.567	265.24
741.008	275.04
741.45	273.14
741.892	280.34
742.334	300.04
742.775	311.34
743.217	303.94
743.658	238.54
744.1	216.84
744.542	227.54
744.983	275.14
745.425	303.94
745.866	306.04
746.307	246.94
746.749	246.54
747.19	282.54
747.632	395.84
748.073	750.14
748.514	1592.94
748.956	2510.34
749.397	3131.94
749.838	2614.54
750.279	2659.44
750.72	1322.14
751.162	483.54
751.603	284.54
752.044	223.44
752.485	194.44
752.926	186.84
753.367	177.44
753.808	168.64
754.249	165.54
754.69	166.94
755.131	161.24
755.572	162.94
756.013	159.34
756.453	160.04
756.894	159.24
757.335	165.44
757.776	167.54
758.216	168.84
758.657	180.74
759.098	180.04
759.538	199.64
759.979	231.94
760.42	315.84
760.86	599.24
761.301	1537.74
761.741	3812.54
762.182	5798.54
762.622	4074.24
763.063	1166.24
763.503	480.34
763.943	306.84
764.384	298.44
764.824	368.34
765.264	397.54
765.705	277.54
766.145	188.44
766.585	164.64
767.025	162.34
767.465	164.24
767.906	218.04
768.346	290.14
768.786	303.74
769.226	230.34
769.666	272.74
770.106	516.34
770.546	1331.54
770.986	2344.34
771.426	2141.64
771.866	707.24
772.306	285.24
772.745	187.44
773.185	154.24
773.625	141.04
774.065	147.94
774.505	175.24
774.944	273.54
775.384	604.74
775.824	1142.44
776.263	1126.14
776.703	462.44
777.142	200.24
777.582	136.14
778.021	122.54
778.461	121.54
778.9	120.64
779.34	117.74
779.779	105.74
780.219	95.14
780.658	98.44
781.097	102.44
781.537	99.24
781.976	97.54
782.415	89.74
782.855	95.34
783.294	85.24
783.733	93.44
784.172	94.14
784.611	92.24
785.05	97.24
785.489	102.24
785.928	109.34
786.367	108.24
786.806	98.64
787.245	110.94
787.684	119.34
788.123	130.14
788.562	118.04
789.001	115.24
789.44	105.94
789.879	104.24
790.317	102.34
790.756	104.44
791.195	111.24
791.634	128.54
792.072	171.94
792.511	302.64
792.95	850.84
793.388	1880.44
793.827	1755.14
794.265	593.54
794.704	245.94
795.142	162.54
795.581	139.64
796.019	114.14
796.458	110.44
796.896	103.74
797.334	114.64
797.773	140.44
798.211	180.44
798.649	363.94
799.087	886.84
799.526	1392.04
799.964	1753.54
800.402	1797.44
800.84	673.94
801.278	269.54
801.716	160.94
802.154	136.34
802.592	130.74
803.03	123.44
803.468	115.64
803.906	122.54
804.344	128.64
804.782	118.24
805.22	115.74
805.658	112.14
806.096	130.64
806.533	134.04
806.971	145.94
807.409	188.94
807.847	270.24
808.284	552.54
808.722	1585.14
809.16	2911.04
809.597	2707.24
810.035	4774.54
810.472	5240.44
810.91	1869.34
811.347	702.04
811.785	357.04
812.222	217.64
812.66	167.44
813.097	153.74
813.535	116.84
813.972	110.04
814.409	107.14
814.846	92.54
815.284	97.24
815.721	89.24
816.158	93.44
816.595	107.44
817.032	153.14
817.47	178.24
817.907	143.04
818.344	134.04
818.781	101.34
819.218	88.44
819.655	109.44
820.092	161.54
820.529	196.84
820.966	157.54
821.403	118.24
821.839	99.74
822.276	86.04
822.713	108.14
823.15	121.34
823.587	99.64
824.023	122.94
824.46	248.34
824.897	768.94
825.333	1223.14
825.77	510.94
826.206	201.44
826.643	109.84
827.08	94.14
827.516	72.84
827.953	70.44
828.389	80.74
828.825	63.64
829.262	59.34
829.698	56.24
830.135	56.24
830.571	56.34
831.007	57.64
831.443	54.64
831.88	52.94
832.316	52.14
832.752	52.74
833.188	53.94
833.624	57.84
834.06	56.44
834.497	54.94
834.933	60.14
835.369	65.74
835.805	59.24
836.241	62.34
836.677	69.84
837.112	75.84
837.548	88.84
837.984	109.54
838.42	168.04
838.856	414.94
839.292	1306.24
839.727	2063.14
840.163	959.64
840.599	785.44
841.034	1788.24
841.47	1928.74
841.906	698.04
842.341	296.14
842.777	205.54
843.212	286.94
843.648	290.34
844.083	139.24
844.519	93.34
844.954	61.64
845.39	50.34
845.825	49.84
846.261	45.84
846.696	47.14
847.131	48.94
847.566	49.44
848.002	45.54
848.437	48.24
848.872	50.54
849.307	51.84
849.742	69.94
850.177	150.64
850.613	473.04
851.048	781.24
851.483	335.14
851.918	130.14
852.353	70.84
852.788	52.14
853.223	53.14
853.657	43.44
854.092	45.94
854.527	36.34
854.962	36.14
855.397	32.64
855.832	42.54
856.266	41.94
856.701	37.84
857.136	38.24
857.57	41.74
858.005	51.04
858.44	53.54
858.874	35.24
859.309	44.94
859.743	35.64
860.178	38.54
860.612	37.84
861.047	45.34
861.481	56.24
861.915	70.54
862.35	46.24
862.784	29.54
863.218	33.34
863.653	34.14
864.087	40.94
864.521	47.64
864.955	60.04
865.39	136.24
865.824	157.54
866.258	92.44
866.692	144.44
867.126	156.34
867.56	89.94
867.994	41.64
868.428	29.64
868.862	36.94
869.296	46.14
869.73	49.74
870.164	43.44
870.598	40.64
871.031	28.24
871.465	24.24
871.899	23.44
872.333	19.74
872.766	22.44
873.2	22.84
873.634	26.84
874.067	22.34
874.501	24.24
874.935	29.24
875.368	28.34
875.802	23.74
876.235	18.84
876.669	20.64
877.102	22.04
877.535	18.94
877.969	19.34
878.402	22.54
878.836	19.84
879.269	25.54
879.702	17.84
880.135	23.14
880.569	19.14
881.002	21.84
881.435	18.34
881.868	16.74
882.301	20.74
882.734	9.24
883.167	14.64
883.601	16.84
884.034	19.94
884.467	11.84
884.899	16.54
885.332	13.24
885.765	15.04
886.198	22.14
886.631	20.24
887.064	9.94
887.497	15.44
887.929	14.74
888.362	16.94
888.795	11.04
889.228	16.94
889.66	14.84
890.093	12.94
890.526	15.74
890.958	14.14
891.391	22.44
891.823	15.94
892.256	21.74
892.688	12.84
893.121	8.54
893.553	17.34
893.985	16.54
894.418	16.74
894.85	10.74
895.282	15.14
895.715	14.54
896.147	9.94
896.579	19.24
897.011	16.24
897.444	15.24
897.876	11.74
898.308	13.34
898.74	20.44
899.172	11.24
899.604	18.24
900.036	17.84
900.468	15.24
900.9	13.04
901.332	17.64
901.764	16.14
902.196	16.84
902.628	14.84
903.06	13.94
903.491	23.24
903.923	26.34
904.355	17.14
904.787	24.94
905.218	18.74
905.65	15.44
906.082	7.34
906.513	7.64
906.945	17.44
907.376	13.04
907.808	13.64
908.239	21.04
908.671	12.44
909.102	18.34
909.534	17.94
909.965	41.04
910.397	76.34
910.828	272.64
911.259	424.64
911.691	196.24
912.122	94.34
912.553	50.24
912.984	29.34
913.415	23.54
913.847	17.84
914.278	11.54
914.709	10.74
915.14	18.24
915.571	16.34
916.002	16.94
916.433	15.44
916.864	14.24
917.295	12.74
917.726	21.54
918.157	13.14
918.587	21.94
919.018	18.84
919.449	21.24
919.88	20.24
920.311	25.54
920.741	36.54
921.172	140.84
921.603	141.44
922.033	62.84
922.464	38.84
922.895	19.44
923.325	17.64
923.756	10.64
924.186	14.44
924.617	23.44
925.047	35.94
925.478	49.54
925.908	44.24
926.338	26.04
926.769	20.14
927.199	21.04
927.629	8.64
928.06	17.64
928.49	14.44
928.92	12.84
929.35	7.24
929.78	9.54
930.21	2.44
930.641	7.84
931.071	6.44
931.501	3.74
931.931	7.84
932.361	7.14
932.791	1.14
933.221	7.04
933.651	3.14
934.08	10.04
934.51	23.34
934.94	9.24
935.37	9.84
935.8	10.94
936.229	8.84
936.659	2.94
937.089	3.54
937.519	11.74
937.948	18.24
938.378	17.44
938.807	9.34
939.237	7.84
939.666	2.24
940.096	-3.26
940.525	3.24
940.955	-2.16
941.384	5.44
941.814	-6.36
942.243	0.54
942.672	-1.26
943.102	1.94
943.531	4.24
943.96	2.24
944.39	-3.86
944.819	-1.86
945.248	2.74
945.677	6.84
946.106	6.04
946.535	5.64
946.964	4.14
947.393	8.84
947.822	-0.46
948.251	-2.46
948.68	-0.86
949.109	6.74
949.538	13.74
949.967	-1.26
950.396	-3.16
950.825	2.24
951.254	3.64
951.682	-13.96
952.111	6.04
952.54	5.14
952.969	0.44
953.397	-10.56
953.826	-1.46
954.254	-5.06
954.683	-3.66
955.112	-6.06
955.54	-6.96
955.969	-4.66
956.397	-2.66
956.826	-7.06
957.254	1.94
957.682	2.74
958.111	-0.16
958.539	1.54
958.967	0.34
959.396	-0.36
959.824	-2.76
960.252	2.34
960.68	-2.66
961.109	0.04
961.537	-8.36
961.965	-3.46
962.393	-1.76
962.821	1.54
963.249	-1.86
963.677	2.74
964.105	0.44
964.533	39.74
964.961	39.94
965.389	19.34
965.817	5.64
966.245	7.64
966.672	-4.76
967.1	-6.96
967.528	6.14
967.956	1.94
968.383	2.54
968.811	-2.06
969.239	-1.86
969.666	-3.86
970.094	-2.16
970.522	-2.96
970.949	-4.36
971.377	-4.16
971.804	1.14
972.232	-8.46
972.659	-2.26
973.087	3.34
973.514	-3.56
973.941	-9.86
974.369	-5.86
974.796	7.24
975.223	-1.96
975.651	3.44
976.078	3.64
976.505	1.44
976.932	-0.96
977.359	12.24
977.786	15.14
978.214	1.64
978.641	-5.06
979.068	-1.16
979.495	-3.26
979.922	-0.46
980.349	-1.86
980.776	7.14
981.202	-3.26
981.629	-1.86
982.056	6.34
982.483	-4.46
982.91	2.14
983.337	-4.36
983.763	2.04
984.19	-6.96
984.617	-8.06
985.043	-11.56
985.47	1.24
985.897	2.54
986.323	-4.66
986.75	2.44
987.176	-0.86
987.603	1.14
988.029	-0.16
988.456	-1.26
988.882	-1.16
989.308	-3.16
989.735	-1.46
990.161	-1.46
990.587	-7.36
991.014	-4.26
991.44	8.74
991.866	-2.36
992.292	-4.76
992.719	-2.76
993.145	3.04
993.571	-9.96
993.997	-1.06
994.423	1.54
994.849	-3.16
995.275	2.14
995.701	-2.56
996.127	-3.56
996.553	2.34
996.979	-2.06
997.405	-1.86
997.83	-10.56
998.256	-11.06
998.682	-9.16
999.108	-3.26
999.534	-3.16
999.959	1.14
1000.385	-3.56
1000.811	2.34
1001.236	-10.16
1001.662	-12.86
1002.087	-4.66
1002.513	-5.06
1002.938	3.94
1003.364	1.34
1003.789	-4.46
1004.215	-1.46
1004.64	0.64
1005.066	-0.16
1005.491	-6.26
1005.916	-2.96
1006.342	-3.26
1006.767	-2.76
1007.192	-0.36
1007.617	-1.06
1008.042	-5.96
1008.468	-7.86
1008.893	-9.66
1009.318	-3.16
1009.743	-5.56
1010.168	-1.66
1010.593	-0.56
1011.018	-11.76
1011.443	2.24
1011.868	-4.86
1012.293	-5.16
1012.718	-3.36
1013.143	-0.26
1013.567	6.64
1013.992	-3.96
1014.417	-11.26
1014.842	3.84
1015.267	-5.46
1015.691	-6.76
1016.116	12.44
1016.541	-0.46
1016.965	0.84
1017.39	-0.16
1017.814	2.94
1018.239	-6.46
1018.663	-7.46
1019.088	-9.76
1019.512	-0.76
1019.937	0.14
1020.361	-6.06
1020.785	-9.86
1021.21	-3.26
1021.634	-0.16
1022.058	2.54
1022.483	2.14
1022.907	-5.86
1023.331	-4.66
1023.755	-7.36
1024.179	-1.86
1024.604	-6.46
1025.028	-8.86
1025.452	2.44
1025.876	-2.96
1026.3	6.84
1026.724	-11.76
1027.148	0.24
1027.572	-6.76
1027.996	0.04
1028.42	0.04
1028.843	-7.56
1029.267	-7.86
1029.691	-6.96
1030.115	-8.26
1030.539	-11.66
1030.962	-5.96
1031.386	-7.96
1031.81	5.24
1032.233	4.84
1032.657	0.14
1033.08	-6.56
1033.504	-1.46
1033.927	-0.66
1034.351	-1.66
1034.774	0.14
1035.198	-0.46
1035.621	-7.86
1036.045	-4.26
1036.468	-1.76
1036.891	-7.26
1037.315	-7.96
1037.738	-8.46
1038.161	1.04
1038.584	-5.86
1039.008	-6.86
1039.431	-4.66
1039.854	-1.16
1040.277	-12.66
1040.7	-13.16
1041.123	2.84
1041.546	-6.86
1041.969	-6.06
1042.392	-2.46
1042.815	0.64
1043.238	2.14
1043.661	-0.66
1044.084	-5.36
1044.507	-10.76
1044.93	-4.96
1045.352	-9.76
1045.775	1.44
1046.198	-3.96
1046.621	-1.86
1047.043	-0.86
1047.466	7.44
1047.889	-1.26
1048.311	-9.36
1048.734	-2.06
1049.156	-1.96
1049.579	1.64
1050.001	-2.06
1050.424	-2.06
1050.846	-1.96
1051.269	-2.16
1051.691	-8.06
1052.113	0.74
1052.536	-0.66
1052.958	2.94
1053.38	-2.56
1053.802	-10.56
1054.225	2.04
1054.647	-9.66
1055.069	-1.76
1055.491	3.74
1055.913	-9.06
1056.335	-1.56
1056.757	-5.96
1057.179	-4.96
1057.601	-5.86
1058.023	-3.66
1058.445	-2.46
1058.867	0.04
1059.289	2.24
1059.711	-7.16
1060.133	-6.86
1060.555	-8.26
1060.976	-4.26
1061.398	-6.96
1061.82	-10.56
1062.241	-3.46
1062.663	-4.96
1063.085	-5.26
1063.506	-4.36
1063.928	-7.96
1064.35	-3.06
1064.771	-13.66
1065.193	-8.16
1065.614	-11.86
1066.035	0.24
1066.457	-8.96
1066.878	-4.26
1067.3	0.14
1067.721	-6.56
1068.142	-7.46
1068.564	-3.86
1068.985	-10.56
1069.406	-3.76
1069.827	-5.56
1070.248	2.34
1070.67	-0.36
1071.091	-7.16
1071.512	-7.26
1071.933	-5.56
1072.354	-7.76
1072.775	-2.96
1073.196	-9.46
1073.617	-9.56
1074.038	-4.96
1074.459	-2.56
1074.88	-2.26
1075.3	-2.46
1075.721	-4.86
1076.142	0.64
1076.563	-3.06
1076.983	-7.66
1077.404	-5.56
1077.825	-7.06
1078.246	-6.16
1078.666	-11.56
1079.087	-2.06
1079.507	-4.36
1079.928	0.04
1080.348	2.84
1080.769	-5.26
1081.189	-0.06
1081.61	-2.66
1082.03	-3.06
1082.451	-6.16
1082.871	-0.96
1083.291	-4.16
1083.711	-13.16
1084.132	-3.56
1084.552	-0.66
1084.972	4.94
1085.392	-9.46
1085.813	-9.46
1086.233	-13.36
1086.653	-4.96
1087.073	-1.66
1087.493	-6.76
1087.913	-5.66
1088.333	-3.26
1088.753	-4.06
1089.173	1.34
1089.593	-9.16
1090.013	-1.76
1090.433	2.24
1090.852	1.14
1091.272	-3.56
1091.692	-4.06
1092.112	-6.16
1092.531	-8.26
1092.951	-10.06
1093.371	1.04
1093.79	3.14
1094.21	-3.66
1094.63	-4.66
1095.049	-1.06
1095.469	0.84
1095.888	-0.96
1096.308	1.34
1096.727	1.04
1097.146	-3.56
1097.566	4.14
1097.985	-5.66
1098.405	-4.56
1098.824	-4.26
1099.243	-9.06
1099.662	-11.36
1100.082	-6.56
1100.501	-2.16
1100.92	-4.36
1101.339	-7.56
1101.758	-12.06
