Data from 20171114-ORNL-Ar_H_NY_Subt18_08-04-22-808.txt Node
Date: Tue Nov 14 08:04:22 EST 2017
User: Ender
Spectrometer: HR+D1039
Trigger mode: 0
Integration Time (sec): 2.730000E-2
Scans to average: 10
Electric dark correction enabled: true
Nonlinearity correction enabled: false
Boxcar width: 0
XAxis mode: Wavelengths
Number of Pixels in Spectrum: 2048
>>>>>Begin Spectral Data<<<<<
187.836	-2.36
188.309	-2.36
188.782	-2.36
189.255	3.84
189.728	-0.56
190.201	6.94
190.674	2.54
191.147	4.34
191.619	-8.16
192.092	-0.56
192.565	2.54
193.038	0.54
193.511	-1.96
193.984	-1.86
194.456	-2.76
194.929	1.54
195.402	-5.16
195.874	1.04
196.347	-4.66
196.82	-7.66
197.292	5.74
197.765	-1.36
198.237	-11.46
198.71	0.44
199.182	-0.36
199.655	-0.46
200.127	0.64
200.6	-7.26
201.072	0.14
201.544	-4.26
202.017	-4.36
202.489	1.04
202.961	-6.36
203.433	-2.96
203.906	-3.06
204.378	-10.06
204.85	1.14
205.322	-9.06
205.794	-5.06
206.266	0.04
206.739	-7.36
207.211	11.44
207.683	-11.46
208.155	-6.56
208.627	-5.66
209.099	-3.46
209.57	-8.56
210.042	-2.46
210.514	-4.66
210.986	0.84
211.458	-9.66
211.93	2.84
212.402	-4.56
212.873	-3.06
213.345	-10.56
213.817	-13.86
214.288	-0.36
214.76	-9.76
215.232	-2.96
215.703	-4.06
216.175	-9.26
216.646	-6.26
217.118	-11.86
217.589	-9.76
218.061	-1.36
218.532	-3.56
219.004	3.84
219.475	-3.56
219.946	3.54
220.418	-6.06
220.889	0.44
221.36	3.44
221.832	-8.26
222.303	-3.56
222.774	-0.66
223.245	-10.36
223.717	-7.76
224.188	-0.86
224.659	-7.36
225.13	-4.86
225.601	-1.76
226.072	4.14
226.543	0.84
227.014	-0.96
227.485	0.14
227.956	-2.16
228.427	-1.46
228.898	0.34
229.369	8.94
229.839	-3.36
230.31	-6.06
230.781	5.24
231.252	-4.96
231.722	-3.36
232.193	-2.96
232.664	-2.56
233.135	4.14
233.605	0.74
234.076	-5.76
234.546	4.34
235.017	1.14
235.487	-0.16
235.958	-3.06
236.428	-4.86
236.899	2.04
237.369	0.64
237.84	-2.56
238.31	7.94
238.78	4.54
239.251	-3.36
239.721	3.14
240.191	0.74
240.662	3.34
241.132	1.84
241.602	-0.56
242.072	3.24
242.542	5.44
243.013	1.34
243.483	9.24
243.953	3.84
244.423	-0.86
244.893	-1.86
245.363	1.54
245.833	-5.86
246.303	-3.16
246.773	10.24
247.243	1.74
247.712	0.34
248.182	6.54
248.652	9.74
249.122	0.14
249.592	14.54
250.061	24.14
250.531	31.54
251.001	14.34
251.471	22.94
251.94	19.84
252.41	12.34
252.879	4.24
253.349	14.44
253.818	15.74
254.288	7.54
254.757	6.54
255.227	5.34
255.696	2.24
256.166	6.44
256.635	4.24
257.105	10.84
257.574	5.84
258.043	11.14
258.513	15.44
258.982	17.04
259.451	10.34
259.92	13.64
260.389	12.74
260.859	16.84
261.328	13.24
261.797	12.94
262.266	6.94
262.735	13.74
263.204	9.44
263.673	4.84
264.142	1.44
264.611	-1.56
265.08	4.74
265.549	6.44
266.018	8.24
266.487	-5.46
266.955	1.44
267.424	4.14
267.893	7.84
268.362	4.54
268.83	3.84
269.299	11.04
269.768	2.24
270.236	4.94
270.705	4.94
271.174	11.24
271.642	7.54
272.111	9.14
272.579	17.54
273.048	25.24
273.516	24.34
273.985	30.44
274.453	23.14
274.922	13.94
275.39	12.14
275.858	7.54
276.327	16.14
276.795	18.24
277.263	16.34
277.731	20.64
278.2	51.54
278.668	54.44
279.136	49.14
279.604	19.44
280.072	15.64
280.54	14.74
281.008	7.84
281.477	11.64
281.945	9.64
282.413	12.54
282.881	12.14
283.348	7.24
283.816	19.54
284.284	18.34
284.752	17.54
285.22	10.54
285.688	11.64
286.156	24.94
286.623	40.64
287.091	48.04
287.559	26.34
288.026	19.14
288.494	19.74
288.962	12.14
289.429	6.84
289.897	20.84
290.364	13.94
290.832	18.74
291.3	15.34
291.767	16.54
292.234	18.24
292.702	13.24
293.169	16.34
293.637	21.94
294.104	23.74
294.571	10.94
295.039	11.94
295.506	14.24
295.973	13.74
296.44	16.44
296.908	21.44
297.375	19.14
297.842	27.74
298.309	22.14
298.776	16.24
299.243	22.24
299.71	20.74
300.177	19.34
300.644	18.14
301.111	23.74
301.578	21.14
302.045	16.94
302.512	24.24
302.979	23.94
303.446	22.74
303.913	14.94
304.379	16.34
304.846	29.04
305.313	27.44
305.78	20.54
306.246	23.44
306.713	23.44
307.18	27.64
307.646	22.24
308.113	27.44
308.579	27.44
309.046	36.14
309.512	28.94
309.979	15.94
310.445	23.74
310.912	30.74
311.378	33.14
311.845	23.54
312.311	25.94
312.777	26.54
313.244	30.14
313.71	33.74
314.176	35.14
314.642	29.24
315.109	27.24
315.575	35.34
316.041	37.14
316.507	37.04
316.973	44.44
317.439	30.94
317.905	29.84
318.371	34.84
318.837	39.54
319.303	26.74
319.769	32.54
320.235	32.54
320.701	31.74
321.167	35.64
321.633	33.44
322.099	35.54
322.564	46.84
323.03	36.14
323.496	33.44
323.962	36.84
324.427	36.34
324.893	45.34
325.359	33.44
325.824	35.64
326.29	37.74
326.755	41.44
327.221	39.74
327.686	36.44
328.152	43.54
328.617	39.84
329.083	48.64
329.548	47.04
330.014	43.74
330.479	34.64
330.944	43.54
331.41	42.64
331.875	40.94
332.34	42.54
332.805	41.44
333.271	47.94
333.736	42.84
334.201	50.74
334.666	50.54
335.131	52.24
335.596	49.74
336.061	42.44
336.526	37.84
336.991	49.74
337.456	51.24
337.921	45.74
338.386	43.94
338.851	45.24
339.316	43.84
339.781	43.94
340.246	50.24
340.711	43.34
341.175	51.64
341.64	45.44
342.105	43.24
342.569	51.04
343.034	56.34
343.499	47.44
343.963	47.54
344.428	59.14
344.893	61.44
345.357	58.14
345.822	55.44
346.286	60.64
346.751	67.24
347.215	56.44
347.679	66.04
348.144	87.34
348.608	77.04
349.073	73.04
349.537	73.04
350.001	71.24
350.465	81.14
350.93	71.14
351.394	74.74
351.858	69.24
352.322	78.54
352.786	79.74
353.25	83.94
353.715	102.54
354.179	92.94
354.643	107.04
355.107	112.74
355.571	96.74
356.035	98.24
356.498	106.14
356.962	106.24
357.426	121.44
357.89	105.94
358.354	87.64
358.818	81.04
359.281	80.64
359.745	71.74
360.209	73.34
360.673	64.14
361.136	73.24
361.6	83.04
362.064	76.14
362.527	76.24
362.991	79.14
363.454	73.94
363.918	66.14
364.381	75.04
364.845	74.44
365.308	84.44
365.772	75.34
366.235	75.24
366.698	83.94
367.162	80.44
367.625	79.24
368.088	84.04
368.552	81.24
369.015	71.74
369.478	89.34
369.941	87.64
370.404	81.54
370.867	99.84
371.331	96.54
371.794	105.14
372.257	105.74
372.72	106.44
373.183	99.24
373.646	98.64
374.109	96.34
374.572	96.74
375.035	96.64
375.497	101.04
375.96	97.44
376.423	91.54
376.886	105.44
377.349	99.24
377.811	90.84
378.274	101.24
378.737	96.64
379.199	100.44
379.662	98.84
380.125	108.14
380.587	113.54
381.05	117.94
381.512	120.84
381.975	121.64
382.437	126.34
382.9	115.84
383.362	120.04
383.825	124.04
384.287	135.94
384.75	123.64
385.212	128.34
385.674	128.24
386.136	122.44
386.599	109.74
387.061	115.74
387.523	114.14
387.985	118.44
388.447	132.44
388.91	126.74
389.372	139.64
389.834	133.04
390.296	136.44
390.758	140.84
391.22	158.44
391.682	183.44
392.144	267.54
392.606	209.44
393.068	152.64
393.529	156.34
393.991	135.54
394.453	124.64
394.915	143.04
395.377	170.94
395.838	191.14
396.3	143.74
396.762	126.64
397.224	119.74
397.685	115.14
398.147	118.64
398.608	117.34
399.07	114.14
399.531	122.64
399.993	128.54
400.454	135.84
400.916	136.44
401.377	123.14
401.839	135.04
402.3	134.94
402.762	157.04
403.223	159.74
403.684	160.84
404.145	146.34
404.607	143.34
405.068	149.54
405.529	149.34
405.99	164.74
406.451	160.94
406.913	160.14
407.374	152.94
407.835	140.44
408.296	152.04
408.757	155.74
409.218	164.14
409.679	155.34
410.14	156.54
410.601	160.34
411.062	173.24
411.522	175.14
411.983	168.74
412.444	156.44
412.905	160.64
413.366	165.54
413.826	169.34
414.287	198.34
414.748	239.74
415.208	221.44
415.669	186.24
416.13	191.64
416.59	180.24
417.051	195.04
417.511	195.84
417.972	221.14
418.432	228.14
418.893	267.34
419.353	225.54
419.814	175.24
420.274	165.84
420.734	167.04
421.195	178.54
421.655	180.34
422.115	179.84
422.576	175.94
423.036	181.24
423.496	189.14
423.956	198.04
424.416	204.14
424.876	237.74
425.336	241.04
425.797	235.54
426.257	225.34
426.717	214.94
427.177	209.34
427.637	197.24
428.097	215.04
428.556	223.94
429.016	238.84
429.476	236.54
429.936	250.54
430.396	243.74
430.856	269.34
431.315	283.74
431.775	311.94
432.235	340.44
432.694	308.04
433.154	324.04
433.614	345.34
434.073	301.14
434.533	258.34
434.993	247.54
435.452	253.94
435.912	261.54
436.371	255.14
436.83	252.54
437.29	236.34
437.749	217.54
438.209	218.74
438.668	244.04
439.127	256.44
439.587	235.34
440.046	222.24
440.505	231.34
440.964	245.44
441.424	279.24
441.883	268.24
442.342	228.74
442.801	200.94
443.26	203.04
443.719	201.04
444.178	196.44
444.637	188.24
445.096	200.04
445.555	203.14
446.014	202.54
446.473	204.04
446.932	203.44
447.391	198.94
447.849	201.94
448.308	198.44
448.767	204.04
449.226	210.74
449.685	211.54
450.143	220.94
450.602	210.64
451.061	206.34
451.519	204.34
451.978	205.44
452.436	211.24
452.895	213.24
453.353	226.84
453.812	215.14
454.27	217.14
454.729	208.14
455.187	215.74
455.646	218.04
456.104	225.34
456.562	238.74
457.021	238.74
457.479	227.94
457.937	237.94
458.395	235.54
458.854	220.54
459.312	231.04
459.77	238.24
460.228	229.64
460.686	217.94
461.144	228.24
461.602	216.24
462.06	218.14
462.518	231.84
462.976	215.74
463.434	231.64
463.892	240.74
464.35	263.34
464.808	260.04
465.266	236.94
465.724	239.64
466.181	242.64
466.639	244.84
467.097	262.54
467.555	266.24
468.012	274.94
468.47	283.04
468.928	297.14
469.385	300.44
469.843	313.04
470.3	308.14
470.758	323.24
471.215	336.74
471.673	367.54
472.13	359.04
472.588	364.14
473.045	332.44
473.503	337.54
473.96	356.64
474.417	360.54
474.875	388.94
475.332	416.54
475.789	409.14
476.246	410.34
476.704	441.54
477.161	464.14
477.618	475.84
478.075	502.04
478.532	554.14
478.989	623.84
479.446	713.44
479.903	689.24
480.36	726.74
480.817	781.74
481.274	871.44
481.731	960.94
482.188	1053.94
482.645	1172.94
483.102	1286.04
483.558	1406.04
484.015	1455.54
484.472	1431.24
484.929	1385.64
485.385	1337.14
485.842	1313.44
486.299	1231.64
486.755	1176.64
487.212	983.54
487.668	834.24
488.125	777.94
488.582	710.24
489.038	676.14
489.494	644.64
489.951	628.34
490.407	604.34
490.864	593.94
491.32	591.84
491.776	576.84
492.233	575.04
492.689	545.54
493.145	544.84
493.602	540.04
494.058	551.94
494.514	557.04
494.97	575.74
495.426	582.34
495.882	558.84
496.338	555.34
496.794	565.34
497.251	559.34
497.707	576.94
498.163	575.64
498.618	582.64
499.074	589.44
499.53	612.74
499.986	606.64
500.442	588.64
500.898	567.24
501.354	558.24
501.809	571.34
502.265	579.94
502.721	604.14
503.177	611.64
503.632	592.24
504.088	606.24
504.543	642.14
504.999	636.64
505.455	601.14
505.91	566.94
506.366	571.84
506.821	558.94
507.277	560.74
507.732	559.04
508.187	562.64
508.643	564.44
509.098	579.14
509.553	582.34
510.009	594.74
510.464	606.54
510.919	620.74
511.375	626.74
511.83	630.34
512.285	647.94
512.74	675.84
513.195	710.54
513.65	694.94
514.105	692.14
514.56	692.34
515.015	719.34
515.47	727.74
515.925	717.74
516.38	724.64
516.835	723.54
517.29	714.24
517.745	707.24
518.2	682.64
518.655	676.54
519.109	674.34
519.564	675.74
520.019	661.14
520.474	649.04
520.928	658.54
521.383	645.44
521.838	644.44
522.292	639.14
522.747	631.64
523.201	639.64
523.656	625.04
524.11	617.04
524.565	624.24
525.019	613.74
525.474	628.44
525.928	625.54
526.382	622.24
526.837	624.74
527.291	631.64
527.745	625.34
528.2	618.44
528.654	620.14
529.108	614.24
529.562	613.14
530.016	618.44
530.47	620.34
530.925	618.64
531.379	621.04
531.833	635.44
532.287	627.34
532.741	630.34
533.195	626.34
533.649	645.64
534.103	639.74
534.556	641.44
535.01	638.34
535.464	639.74
535.918	647.84
536.372	637.84
536.826	642.54
537.279	638.74
537.733	626.74
538.187	637.64
538.64	637.44
539.094	641.64
539.548	646.54
540.001	643.64
540.455	633.74
540.908	650.44
541.362	653.84
541.815	658.14
542.269	668.54
542.722	676.14
543.175	686.84
543.629	685.74
544.082	696.44
544.536	696.94
544.989	686.54
545.442	711.14
545.895	707.84
546.349	698.54
546.802	692.64
547.255	704.54
547.708	714.54
548.161	726.34
548.614	729.34
549.067	726.34
549.52	722.44
549.973	711.74
550.426	712.24
550.879	703.14
551.332	710.04
551.785	713.04
552.238	709.94
552.691	721.34
553.144	738.74
553.596	744.54
554.049	756.04
554.502	787.54
554.955	809.34
555.407	809.94
555.86	794.44
556.313	792.74
556.765	779.54
557.218	774.54
557.67	771.94
558.123	765.44
558.576	764.14
559.028	764.44
559.48	775.14
559.933	767.54
560.385	732.84
560.838	713.14
561.29	685.54
561.742	682.24
562.195	669.14
562.647	664.74
563.099	674.34
563.551	678.34
564.004	690.14
564.456	674.44
564.908	662.94
565.36	647.34
565.812	644.04
566.264	630.94
566.716	637.74
567.168	631.64
567.62	633.24
568.072	608.34
568.524	602.94
568.976	600.24
569.428	585.64
569.88	583.84
570.332	587.34
570.784	589.74
571.235	593.04
571.687	604.44
572.139	607.04
572.59	617.04
573.042	615.44
573.494	626.14
573.945	618.24
574.397	589.54
574.849	600.14
575.3	610.54
575.752	589.74
576.203	583.54
576.655	599.54
577.106	579.74
577.557	585.04
578.009	573.84
578.46	580.74
578.912	573.04
579.363	578.04
579.814	574.64
580.265	571.84
580.717	577.34
581.168	581.14
581.619	579.64
582.07	581.54
582.521	586.34
582.972	574.74
583.423	580.44
583.875	582.04
584.326	599.74
584.777	634.14
585.227	703.84
585.678	777.84
586.129	866.84
586.58	933.04
587.031	990.54
587.482	1148.74
587.933	1306.74
588.384	1133.64
588.834	848.24
589.285	694.44
589.736	669.04
590.186	658.84
590.637	654.44
591.088	629.84
591.538	628.34
591.989	622.74
592.439	630.14
592.89	621.84
593.34	612.84
593.791	607.94
594.241	600.34
594.692	605.74
595.142	603.34
595.593	588.94
596.043	601.34
596.493	614.74
596.943	613.44
597.394	612.94
597.844	604.14
598.294	618.84
598.744	634.54
599.195	658.04
599.645	699.34
600.095	724.24
600.545	777.44
600.995	826.74
601.445	875.64
601.895	926.84
602.345	972.24
602.795	955.84
603.245	919.44
603.695	851.64
604.145	813.44
604.594	772.34
605.044	730.54
605.494	677.54
605.944	638.84
606.393	626.94
606.843	618.54
607.293	624.64
607.743	621.74
608.192	622.64
608.642	640.64
609.091	651.64
609.541	644.74
609.99	646.24
610.44	641.84
610.889	601.14
611.339	581.64
611.788	577.14
612.238	597.64
612.687	602.54
613.136	605.04
613.586	633.44
614.035	617.14
614.484	636.54
614.933	637.54
615.383	631.44
615.832	625.14
616.281	610.64
616.73	568.44
617.179	559.14
617.628	540.44
618.077	528.84
618.526	519.04
618.975	513.94
619.424	513.64
619.873	514.24
620.322	523.44
620.771	508.64
621.22	511.04
621.669	508.14
622.118	488.94
622.567	480.14
623.015	473.74
623.464	475.44
623.913	474.84
624.361	463.54
624.81	461.64
625.259	457.74
625.707	462.74
626.156	460.14
626.604	464.34
627.053	456.84
627.501	467.64
627.95	477.64
628.398	478.74
628.847	481.04
629.295	477.94
629.744	479.24
630.192	471.34
630.64	471.64
631.089	463.94
631.537	484.24
631.985	481.54
632.433	497.14
632.881	495.14
633.33	534.84
633.778	540.74
634.226	472.74
634.674	475.54
635.122	466.74
635.57	497.24
636.018	512.94
636.466	486.44
636.914	461.84
637.362	474.74
637.81	468.74
638.258	471.84
638.705	476.54
639.153	501.34
639.601	510.84
640.049	516.94
640.497	547.44
640.944	572.24
641.392	530.94
641.84	512.84
642.287	481.94
642.735	470.34
643.182	474.64
643.63	476.44
644.078	469.64
644.525	490.34
644.973	489.64
645.42	489.84
645.867	509.24
646.315	524.44
646.762	541.54
647.21	572.04
647.657	591.34
648.104	621.84
648.551	630.64
648.999	682.84
649.446	749.74
649.893	817.34
650.34	938.24
650.787	1147.34
651.234	1391.94
651.682	1810.74
652.129	2477.64
652.576	3556.04
653.023	5284.14
653.47	7298.64
653.917	9270.84
654.363	10884.54
654.81	12248.34
655.257	11632.44
655.704	7552.14
656.151	4411.84
656.598	2855.54
657.044	2024.04
657.491	1543.54
657.938	1240.54
658.385	1022.64
658.831	890.34
659.278	797.14
659.724	699.64
660.171	653.44
660.618	584.44
661.064	558.14
661.511	540.44
661.957	526.64
662.404	509.64
662.85	524.34
663.296	497.94
663.743	453.64
664.189	445.74
664.635	438.04
665.082	431.74
665.528	428.04
665.974	426.74
666.42	420.14
666.867	415.44
667.313	391.24
667.759	389.24
668.205	386.14
668.651	399.24
669.097	395.84
669.543	405.24
669.989	385.04
670.435	375.24
670.881	366.84
671.327	368.64
671.773	379.44
672.219	390.24
672.665	440.84
673.11	471.54
673.556	505.04
674.002	549.14
674.448	539.34
674.893	446.14
675.339	384.44
675.785	357.04
676.23	334.84
676.676	318.24
677.122	314.44
677.567	301.54
678.013	303.14
678.458	278.54
678.904	290.94
679.349	282.54
679.794	287.14
680.24	291.44
680.685	275.04
681.131	282.24
681.576	278.44
682.021	282.74
682.466	281.94
682.912	275.64
683.357	280.24
683.802	309.34
684.247	329.74
684.692	365.94
685.137	393.74
685.583	431.64
686.028	463.44
686.473	431.84
686.918	361.94
687.363	337.84
687.807	319.34
688.252	290.04
688.697	281.34
689.142	266.74
689.587	265.14
690.032	256.64
690.477	270.74
690.921	277.94
691.366	307.84
691.811	324.04
692.255	349.34
692.7	367.14
693.145	406.84
693.589	538.04
694.034	881.54
694.478	1232.94
694.923	1425.74
695.367	1890.94
695.812	979.44
696.256	408.74
696.701	294.74
697.145	282.54
697.59	261.84
698.034	254.24
698.478	267.34
698.922	264.84
699.367	258.14
699.811	272.24
700.255	282.74
700.699	311.44
701.143	339.64
701.588	382.54
702.032	416.14
702.476	416.64
702.92	403.04
703.364	390.54
703.808	495.84
704.252	797.34
704.696	1150.64
705.14	1368.34
705.584	1773.14
706.027	866.74
706.471	425.14
706.915	320.24
707.359	276.44
707.803	254.24
708.246	242.34
708.69	247.64
709.134	251.14
709.577	250.24
710.021	257.64
710.465	244.44
710.908	242.14
711.352	239.84
711.795	243.34
712.239	279.34
712.682	303.64
713.126	329.74
713.569	375.04
714.012	299.24
714.456	262.74
714.899	244.24
715.342	216.84
715.786	209.34
716.229	209.34
716.672	210.24
717.115	197.44
717.558	195.84
718.002	197.04
718.445	209.44
718.888	228.24
719.331	233.74
719.774	240.34
720.217	238.44
720.66	225.44
721.103	213.84
721.546	200.34
721.989	201.34
722.432	187.34
722.874	193.64
723.317	184.84
723.76	185.54
724.203	202.34
724.645	253.24
725.088	343.44
725.531	457.14
725.974	515.74
726.416	441.34
726.859	253.24
727.301	196.24
727.744	189.14
728.187	184.94
728.629	192.84
729.071	191.54
729.514	201.74
729.956	219.74
730.399	231.64
730.841	232.54
731.283	214.74
731.726	208.04
732.168	206.74
732.61	215.44
733.053	224.44
733.495	247.84
733.937	273.34
734.379	307.94
734.821	338.04
735.263	419.54
735.705	651.54
736.148	1227.14
736.59	2033.84
737.032	2535.44
737.474	2066.94
737.916	657.14
738.357	345.74
738.799	261.94
739.241	233.54
739.683	223.84
740.125	230.54
740.567	236.84
741.008	247.74
741.45	256.74
741.892	251.54
742.334	278.74
742.775	287.94
743.217	277.24
743.658	214.94
744.1	198.14
744.542	211.74
744.983	249.64
745.425	281.44
745.866	286.64
746.307	223.74
746.749	226.94
747.19	250.44
747.632	354.94
748.073	672.44
748.514	1451.44
748.956	2298.64
749.397	2876.14
749.838	2407.44
750.279	2468.04
750.72	1236.24
751.162	441.64
751.603	260.84
752.044	201.14
752.485	172.54
752.926	168.64
753.367	160.24
753.808	160.34
754.249	150.74
754.69	148.04
755.131	142.14
755.572	138.24
756.013	139.74
756.453	150.14
756.894	142.74
757.335	152.84
757.776	152.64
758.216	145.54
758.657	154.04
759.098	156.34
759.538	181.44
759.979	205.74
760.42	286.04
760.86	538.94
761.301	1396.64
761.741	3491.44
762.182	5440.24
762.622	3802.54
763.063	1072.74
763.503	435.24
763.943	272.44
764.384	268.34
764.824	325.14
765.264	360.54
765.705	245.44
766.145	170.14
766.585	147.04
767.025	138.94
767.465	151.44
767.906	189.24
768.346	265.34
768.786	275.94
769.226	201.64
769.666	252.24
770.106	474.44
770.546	1200.04
770.986	2172.94
771.426	1974.44
771.866	641.34
772.306	257.74
772.745	168.34
773.185	134.44
773.625	129.64
774.065	128.94
774.505	156.74
774.944	237.04
775.384	535.64
775.824	1009.84
776.263	1007.54
776.703	418.04
777.142	167.44
777.582	126.04
778.021	111.34
778.461	113.84
778.9	110.54
779.34	108.14
779.779	93.24
780.219	87.04
780.658	80.64
781.097	87.24
781.537	94.34
781.976	89.44
782.415	82.24
782.855	81.14
783.294	84.14
783.733	84.74
784.172	88.84
784.611	75.14
785.05	82.24
785.489	83.74
785.928	93.94
786.367	91.64
786.806	96.84
787.245	105.44
787.684	103.54
788.123	118.64
788.562	108.64
789.001	100.64
789.44	93.24
789.879	99.14
790.317	92.84
790.756	101.54
791.195	100.44
791.634	115.14
792.072	157.14
792.511	277.34
792.95	781.64
793.388	1764.84
793.827	1637.64
794.265	561.24
794.704	228.74
795.142	145.94
795.581	119.84
796.019	108.14
796.458	100.04
796.896	98.24
797.334	107.24
797.773	124.14
798.211	169.24
798.649	334.44
799.087	805.14
799.526	1280.34
799.964	1614.14
800.402	1694.84
800.84	622.64
801.278	240.74
801.716	151.24
802.154	121.94
802.592	122.84
803.03	113.04
803.468	100.34
803.906	109.14
804.344	118.64
804.782	108.24
805.22	107.84
805.658	98.14
806.096	111.54
806.533	129.24
806.971	134.04
807.409	167.44
807.847	244.94
808.284	503.94
808.722	1469.54
809.16	2714.24
809.597	2486.54
810.035	4430.04
810.472	4965.14
810.91	1759.94
811.347	653.54
811.785	321.14
812.222	203.84
812.66	154.54
813.097	132.24
813.535	110.24
813.972	100.64
814.409	93.84
814.846	87.94
815.284	84.04
815.721	80.44
816.158	83.64
816.595	92.14
817.032	144.94
817.47	164.84
817.907	143.64
818.344	122.24
818.781	94.24
819.218	81.74
819.655	98.14
820.092	150.04
820.529	177.54
820.966	151.84
821.403	105.54
821.839	87.74
822.276	80.34
822.713	104.44
823.15	114.94
823.587	90.14
824.023	111.14
824.46	225.04
824.897	705.64
825.333	1122.24
825.77	480.44
826.206	184.84
826.643	110.04
827.08	81.94
827.516	58.94
827.953	63.74
828.389	67.54
828.825	59.84
829.262	56.74
829.698	53.04
830.135	52.24
830.571	48.64
831.007	45.14
831.443	50.64
831.88	56.54
832.316	51.44
832.752	54.74
833.188	50.84
833.624	49.54
834.06	56.54
834.497	54.84
834.933	54.34
835.369	57.44
835.805	49.94
836.241	56.74
836.677	65.74
837.112	67.84
837.548	81.14
837.984	99.04
838.42	151.74
838.856	378.34
839.292	1212.84
839.727	1934.74
840.163	892.74
840.599	730.24
841.034	1655.84
841.47	1807.84
841.906	646.14
842.341	263.84
842.777	190.24
843.212	264.84
843.648	255.24
844.083	119.14
844.519	72.04
844.954	58.84
845.39	48.14
845.825	42.04
846.261	43.74
846.696	37.54
847.131	36.84
847.566	49.54
848.002	43.74
848.437	36.34
848.872	48.14
849.307	45.54
849.742	73.94
850.177	141.44
850.613	438.14
851.048	722.24
851.483	320.64
851.918	119.44
852.353	69.54
852.788	46.44
853.223	45.54
853.657	44.94
854.092	40.34
854.527	28.94
854.962	24.54
855.397	29.24
855.832	45.24
856.266	33.34
856.701	29.84
857.136	26.34
857.57	30.44
858.005	37.44
858.44	47.84
858.874	35.04
859.309	40.44
859.743	30.74
860.178	35.24
860.612	26.14
861.047	36.64
861.481	53.54
861.915	58.84
862.35	38.04
862.784	22.04
863.218	27.54
863.653	27.14
864.087	37.94
864.521	42.64
864.955	49.94
865.39	121.84
865.824	147.24
866.258	95.04
866.692	136.44
867.126	152.54
867.56	87.74
867.994	47.64
868.428	33.54
868.862	35.24
869.296	38.64
869.73	42.74
870.164	41.34
870.598	34.64
871.031	30.24
871.465	24.04
871.899	27.34
872.333	24.84
872.766	20.84
873.2	20.94
873.634	28.14
874.067	22.84
874.501	16.04
874.935	23.54
875.368	27.34
875.802	14.24
876.235	22.14
876.669	22.74
877.102	20.24
877.535	21.94
877.969	12.24
878.402	20.04
878.836	18.64
879.269	18.84
879.702	16.54
880.135	17.84
880.569	13.54
881.002	24.44
881.435	18.14
881.868	14.04
882.301	18.94
882.734	10.24
883.167	18.14
883.601	14.34
884.034	15.04
884.467	13.84
884.899	11.94
885.332	12.84
885.765	7.04
886.198	14.64
886.631	10.74
887.064	18.94
887.497	13.44
887.929	19.94
888.362	14.14
888.795	7.74
889.228	12.44
889.66	17.94
890.093	12.54
890.526	17.24
890.958	14.24
891.391	17.04
891.823	22.64
892.256	16.14
892.688	1.24
893.121	12.04
893.553	5.14
893.985	20.64
894.418	11.84
894.85	8.64
895.282	6.64
895.715	14.94
896.147	16.64
896.579	14.24
897.011	4.34
897.444	11.34
897.876	14.04
898.308	15.04
898.74	12.24
899.172	10.94
899.604	20.04
900.036	18.04
900.468	10.24
900.9	9.84
901.332	11.14
901.764	3.84
902.196	12.84
902.628	8.94
903.06	11.64
903.491	20.24
903.923	17.34
904.355	12.54
904.787	11.14
905.218	12.24
905.65	18.54
906.082	15.04
906.513	8.04
906.945	16.24
907.376	6.24
907.808	16.34
908.239	19.14
908.671	19.84
909.102	14.04
909.534	16.94
909.965	33.44
910.397	68.74
910.828	249.94
911.259	399.04
911.691	175.24
912.122	84.64
912.553	42.24
912.984	24.24
913.415	21.24
913.847	20.14
914.278	17.14
914.709	10.14
915.14	12.44
915.571	7.84
916.002	10.04
916.433	23.94
916.864	14.64
917.295	9.04
917.726	17.64
918.157	9.84
918.587	13.74
919.018	16.64
919.449	11.94
919.88	18.64
920.311	27.74
920.741	41.54
921.172	135.24
921.603	126.34
922.033	48.74
922.464	38.04
922.895	16.44
923.325	14.24
923.756	8.84
924.186	10.94
924.617	25.04
925.047	38.64
925.478	40.94
925.908	34.74
926.338	20.54
926.769	16.44
927.199	16.34
927.629	1.54
928.06	8.34
928.49	13.14
928.92	12.44
929.35	7.84
929.78	7.24
930.21	8.74
930.641	3.34
931.071	3.84
931.501	3.24
931.931	10.14
932.361	9.44
932.791	5.04
933.221	3.44
933.651	4.54
934.08	15.74
934.51	27.64
934.94	4.24
935.37	7.34
935.8	7.44
936.229	9.34
936.659	9.14
937.089	-0.26
937.519	12.84
937.948	20.64
938.378	15.24
938.807	0.44
939.237	7.44
939.666	4.14
940.096	-5.76
940.525	0.34
940.955	-0.96
941.384	6.14
941.814	-8.76
942.243	1.14
942.672	1.64
943.102	-7.46
943.531	6.04
943.96	0.14
944.39	1.34
944.819	0.54
945.248	4.84
945.677	-1.56
946.106	6.54
946.535	6.14
946.964	6.24
947.393	-0.66
947.822	0.44
948.251	-3.36
948.68	4.84
949.109	8.84
949.538	3.04
949.967	-4.36
950.396	-0.96
950.825	-3.66
951.254	-2.46
951.682	-13.56
952.111	3.04
952.54	3.24
952.969	-3.26
953.397	-6.06
953.826	0.24
954.254	-5.56
954.683	2.14
955.112	-2.56
955.54	2.54
955.969	-2.06
956.397	-5.46
956.826	-6.76
957.254	1.04
957.682	0.14
958.111	1.54
958.539	-0.76
958.967	-0.06
959.396	2.34
959.824	4.04
960.252	2.14
960.68	-4.86
961.109	-4.26
961.537	-6.16
961.965	-4.56
962.393	1.64
962.821	-5.36
963.249	-4.26
963.677	1.14
964.105	3.94
964.533	31.64
964.961	30.74
965.389	19.14
965.817	4.74
966.245	-2.26
966.672	-1.16
967.1	-6.96
967.528	2.54
967.956	-2.76
968.383	-2.86
968.811	-6.26
969.239	-4.36
969.666	-4.56
970.094	3.64
970.522	3.64
970.949	-1.76
971.377	-3.96
971.804	-2.56
972.232	-3.06
972.659	-1.36
973.087	-8.76
973.514	-0.86
973.941	-1.76
974.369	-0.66
974.796	2.54
975.223	0.54
975.651	4.24
976.078	1.24
976.505	-0.96
976.932	2.94
977.359	12.64
977.786	14.64
978.214	4.14
978.641	-1.66
979.068	-1.76
979.495	-4.66
979.922	-2.06
980.349	-3.46
980.776	1.84
981.202	-1.76
981.629	3.04
982.056	4.94
982.483	-3.66
982.91	-1.26
983.337	-9.66
983.763	4.04
984.19	-5.16
984.617	-2.16
985.043	-5.26
985.47	-3.46
985.897	-5.36
986.323	-3.96
986.75	0.24
987.176	1.44
987.603	-4.56
988.029	-2.26
988.456	-0.36
988.882	-0.56
989.308	-1.66
989.735	1.44
990.161	6.84
990.587	-3.06
991.014	-5.66
991.44	1.54
991.866	-3.96
992.292	-5.26
992.719	-1.26
993.145	6.64
993.571	-11.56
993.997	-0.26
994.423	-4.16
994.849	-5.66
995.275	-4.46
995.701	-1.56
996.127	0.14
996.553	-0.16
996.979	-1.76
997.405	-2.46
997.83	-2.26
998.256	-6.16
998.682	-3.76
999.108	-11.56
999.534	-2.36
999.959	-3.86
1000.385	-4.56
1000.811	-0.96
1001.236	-8.26
1001.662	-9.86
1002.087	-5.16
1002.513	0.14
1002.938	4.74
1003.364	-2.16
1003.789	-0.96
1004.215	3.84
1004.64	-4.96
1005.066	3.24
1005.491	-1.66
1005.916	0.54
1006.342	-2.96
1006.767	-11.16
1007.192	3.24
1007.617	-3.06
1008.042	-7.16
1008.468	-1.46
1008.893	-0.46
1009.318	2.14
1009.743	-4.66
1010.168	1.34
1010.593	1.54
1011.018	-1.66
1011.443	-7.36
1011.868	1.24
1012.293	-1.76
1012.718	-9.26
1013.143	-0.96
1013.567	0.94
1013.992	1.34
1014.417	-11.96
1014.842	3.24
1015.267	-2.06
1015.691	-3.86
1016.116	3.54
1016.541	-5.56
1016.965	-2.56
1017.39	8.24
1017.814	3.34
1018.239	-2.06
1018.663	-4.36
1019.088	-12.86
1019.512	-1.66
1019.937	0.14
1020.361	-8.96
1020.785	-12.56
1021.21	-8.46
1021.634	-1.16
1022.058	2.44
1022.483	-0.86
1022.907	-7.96
1023.331	-7.16
1023.755	2.14
1024.179	-0.56
1024.604	-6.06
1025.028	-5.66
1025.452	-3.26
1025.876	-1.76
1026.3	1.04
1026.724	-15.76
1027.148	-4.46
1027.572	-6.66
1027.996	-5.86
1028.42	-2.66
1028.843	-4.36
1029.267	-5.26
1029.691	-4.76
1030.115	-5.56
1030.539	-9.26
1030.962	-4.86
1031.386	-15.36
1031.81	-0.96
1032.233	-1.46
1032.657	-2.76
1033.08	-2.26
1033.504	-5.16
1033.927	-2.26
1034.351	1.94
1034.774	2.34
1035.198	-3.36
1035.621	-2.76
1036.045	-8.36
1036.468	-0.76
1036.891	-7.66
1037.315	-9.26
1037.738	-12.36
1038.161	-4.26
1038.584	-4.86
1039.008	-8.26
1039.431	-3.86
1039.854	-2.06
1040.277	-8.36
1040.7	-8.76
1041.123	-3.86
1041.546	-11.46
1041.969	-2.86
1042.392	-4.36
1042.815	-3.56
1043.238	4.44
1043.661	3.74
1044.084	-7.76
1044.507	-5.46
1044.93	-7.66
1045.352	-11.36
1045.775	5.74
1046.198	-1.26
1046.621	-2.86
1047.043	-7.36
1047.466	9.34
1047.889	-4.26
1048.311	-6.56
1048.734	-8.86
1049.156	-3.96
1049.579	-2.26
1050.001	-6.46
1050.424	-6.26
1050.846	-3.26
1051.269	-6.26
1051.691	-6.66
1052.113	-4.26
1052.536	0.34
1052.958	-4.96
1053.38	-3.76
1053.802	-10.06
1054.225	1.94
1054.647	-5.06
1055.069	-5.06
1055.491	2.34
1055.913	-7.06
1056.335	-1.16
1056.757	-3.96
1057.179	-2.46
1057.601	-4.96
1058.023	-3.86
1058.445	-5.36
1058.867	-6.86
1059.289	-4.76
1059.711	-3.66
1060.133	-0.56
1060.555	-5.96
1060.976	-9.46
1061.398	-6.76
1061.82	-7.26
1062.241	-4.96
1062.663	-14.86
1063.085	-5.86
1063.506	1.74
1063.928	-5.86
1064.35	1.04
1064.771	-11.56
1065.193	-2.96
1065.614	-12.36
1066.035	-4.46
1066.457	-2.16
1066.878	6.04
1067.3	-4.96
1067.721	-6.46
1068.142	-5.76
1068.564	-5.26
1068.985	-7.26
1069.406	-4.66
1069.827	-5.46
1070.248	-4.16
1070.67	-4.86
1071.091	-6.16
1071.512	-1.86
1071.933	-11.76
1072.354	-5.96
1072.775	-10.46
1073.196	-7.96
1073.617	-4.76
1074.038	-7.16
1074.459	-3.46
1074.88	-10.96
1075.3	-6.16
1075.721	-5.46
1076.142	0.34
1076.563	2.04
1076.983	-10.66
1077.404	-12.26
1077.825	-11.16
1078.246	0.44
1078.666	-11.26
1079.087	-6.36
1079.507	-6.66
1079.928	-3.66
1080.348	-3.06
1080.769	-11.96
1081.189	-2.06
1081.61	-9.06
1082.03	-7.16
1082.451	-8.26
1082.871	-1.66
1083.291	-4.86
1083.711	-8.66
1084.132	-2.66
1084.552	-5.76
1084.972	-4.86
1085.392	-9.76
1085.813	-10.26
1086.233	-10.86
1086.653	-5.46
1087.073	-7.16
1087.493	-11.76
1087.913	-7.56
1088.333	-10.56
1088.753	-6.66
1089.173	0.64
1089.593	-0.86
1090.013	0.24
1090.433	-1.16
1090.852	-8.26
1091.272	-3.76
1091.692	-2.86
1092.112	-3.96
1092.531	-9.26
1092.951	-10.36
1093.371	-5.76
1093.79	-0.96
1094.21	-2.26
1094.63	-3.36
1095.049	-6.06
1095.469	5.64
1095.888	-2.66
1096.308	1.74
1096.727	6.34
1097.146	-6.76
1097.566	4.74
1097.985	-8.16
1098.405	-2.76
1098.824	-6.06
1099.243	-6.96
1099.662	-6.96
1100.082	-4.46
1100.501	-8.96
1100.92	-9.86
1101.339	-7.46
1101.758	-7.06
