Data from 20171114-ORNL-Ar_H_NY_Subt18_08-08-11-016.txt Node
Date: Tue Nov 14 08:08:11 EST 2017
User: Ender
Spectrometer: HR+D1039
Trigger mode: 0
Integration Time (sec): 2.730000E-2
Scans to average: 10
Electric dark correction enabled: true
Nonlinearity correction enabled: false
Boxcar width: 0
XAxis mode: Wavelengths
Number of Pixels in Spectrum: 2048
>>>>>Begin Spectral Data<<<<<
187.836	-5.46
188.309	-5.46
188.782	-5.46
189.255	-3.96
189.728	-2.86
190.201	3.14
190.674	2.84
191.147	2.14
191.619	-7.76
192.092	1.14
192.565	9.24
193.038	4.24
193.511	0.24
193.984	-0.76
194.456	-2.96
194.929	1.44
195.402	-3.06
195.874	2.34
196.347	-2.86
196.82	-7.66
197.292	4.94
197.765	0.54
198.237	-5.26
198.71	-1.76
199.182	-5.76
199.655	3.54
200.127	0.44
200.6	-5.26
201.072	-5.46
201.544	-3.96
202.017	-5.66
202.489	3.34
202.961	-0.16
203.433	-3.26
203.906	-7.56
204.378	-6.76
204.85	-6.56
205.322	-16.26
205.794	1.14
206.266	-2.86
206.739	-7.96
207.211	2.74
207.683	-5.76
208.155	-6.36
208.627	-8.36
209.099	-4.96
209.57	-6.76
210.042	-7.56
210.514	-6.46
210.986	-3.46
211.458	-8.36
211.93	-5.16
212.402	-1.56
212.873	-13.06
213.345	-14.76
213.817	-14.96
214.288	-7.36
214.76	-8.26
215.232	-1.56
215.703	-6.96
216.175	0.04
216.646	-8.06
217.118	-8.06
217.589	-7.56
218.061	-4.96
218.532	-10.16
219.004	-3.36
219.475	-6.36
219.946	-3.16
220.418	-6.96
220.889	1.04
221.36	5.24
221.832	-5.26
222.303	-6.56
222.774	-0.36
223.245	-8.36
223.717	-9.56
224.188	-7.56
224.659	-8.56
225.13	-7.36
225.601	-5.16
226.072	-0.56
226.543	-0.76
227.014	0.54
227.485	0.74
227.956	-5.76
228.427	-2.06
228.898	0.54
229.369	-2.26
229.839	-4.96
230.31	-11.86
230.781	-0.66
231.252	-2.86
231.722	-3.76
232.193	-0.66
232.664	-3.16
233.135	2.44
233.605	1.04
234.076	-2.56
234.546	2.74
235.017	8.14
235.487	3.34
235.958	3.34
236.428	-3.66
236.899	0.74
237.369	2.74
237.84	-0.16
238.31	8.14
238.78	1.14
239.251	-4.46
239.721	-2.06
240.191	4.24
240.662	0.24
241.132	4.24
241.602	-4.36
242.072	-0.96
242.542	3.04
243.013	0.74
243.483	3.34
243.953	-1.96
244.423	-1.46
244.893	-4.46
245.363	2.84
245.833	0.54
246.303	-3.06
246.773	10.74
247.243	2.44
247.712	5.74
248.182	-0.06
248.652	12.54
249.122	-1.76
249.592	9.54
250.061	16.04
250.531	29.44
251.001	9.64
251.471	17.14
251.94	16.84
252.41	7.84
252.879	-0.86
253.349	7.24
253.818	5.14
254.288	4.34
254.757	3.74
255.227	4.94
255.696	2.64
256.166	6.44
256.635	5.44
257.105	1.04
257.574	4.54
258.043	9.94
258.513	12.14
258.982	17.34
259.451	8.94
259.92	16.04
260.389	11.54
260.859	16.34
261.328	13.44
261.797	19.94
262.266	7.44
262.735	12.14
263.204	5.84
263.673	0.84
264.142	7.44
264.611	-3.16
265.08	-0.96
265.549	0.24
266.018	6.94
266.487	-1.96
266.955	-6.36
267.424	0.74
267.893	6.84
268.362	-3.56
268.83	7.04
269.299	10.64
269.768	10.84
270.236	3.14
270.705	8.54
271.174	4.94
271.642	5.64
272.111	8.54
272.579	18.04
273.048	22.64
273.516	27.24
273.985	24.94
274.453	21.04
274.922	18.44
275.39	11.24
275.858	3.54
276.327	7.24
276.795	17.54
277.263	5.54
277.731	25.04
278.2	48.14
278.668	49.84
279.136	43.74
279.604	19.54
280.072	14.54
280.54	8.44
281.008	11.94
281.477	11.04
281.945	16.54
282.413	10.24
282.881	17.24
283.348	2.14
283.816	13.84
284.284	16.24
284.752	21.34
285.22	13.14
285.688	16.24
286.156	18.34
286.623	43.64
287.091	48.84
287.559	28.34
288.026	16.24
288.494	7.34
288.962	5.54
289.429	11.14
289.897	20.44
290.364	12.94
290.832	13.84
291.3	16.94
291.767	13.24
292.234	15.14
292.702	11.94
293.169	23.24
293.637	24.24
294.104	22.04
294.571	14.24
295.039	11.14
295.506	16.54
295.973	15.54
296.44	12.74
296.908	14.74
297.375	16.04
297.842	14.34
298.309	12.14
298.776	12.64
299.243	14.24
299.71	9.84
300.177	19.14
300.644	18.64
301.111	17.24
301.578	25.14
302.045	14.64
302.512	20.04
302.979	21.14
303.446	22.74
303.913	23.04
304.379	20.24
304.846	27.94
305.313	25.94
305.78	16.04
306.246	28.44
306.713	25.74
307.18	27.14
307.646	21.34
308.113	27.84
308.579	19.14
309.046	25.44
309.512	23.44
309.979	16.84
310.445	22.74
310.912	25.84
311.378	30.64
311.845	27.14
312.311	25.34
312.777	31.94
313.244	25.34
313.71	40.54
314.176	28.74
314.642	30.14
315.109	28.64
315.575	39.34
316.041	38.14
316.507	28.54
316.973	38.34
317.439	33.04
317.905	36.54
318.371	27.04
318.837	34.44
319.303	28.94
319.769	30.14
320.235	35.94
320.701	30.54
321.167	36.84
321.633	33.74
322.099	41.84
322.564	43.74
323.03	35.34
323.496	38.24
323.962	38.54
324.427	35.24
324.893	39.34
325.359	41.04
325.824	33.44
326.29	37.24
326.755	43.04
327.221	37.64
327.686	32.34
328.152	40.74
328.617	45.34
329.083	49.24
329.548	54.14
330.014	45.24
330.479	37.14
330.944	40.84
331.41	38.44
331.875	44.34
332.34	44.44
332.805	33.64
333.271	46.54
333.736	42.84
334.201	49.34
334.666	49.34
335.131	52.84
335.596	46.54
336.061	46.64
336.526	41.34
336.991	48.44
337.456	54.94
337.921	55.74
338.386	40.84
338.851	47.84
339.316	44.24
339.781	44.54
340.246	49.94
340.711	37.24
341.175	51.04
341.64	44.84
342.105	48.84
342.569	51.84
343.034	55.74
343.499	49.94
343.963	50.34
344.428	56.44
344.893	59.94
345.357	58.44
345.822	54.64
346.286	61.74
346.751	70.94
347.215	67.54
347.679	70.14
348.144	91.34
348.608	79.24
349.073	66.04
349.537	74.14
350.001	77.44
350.465	87.24
350.93	79.14
351.394	77.64
351.858	75.44
352.322	85.34
352.786	80.04
353.25	97.84
353.715	105.94
354.179	99.64
354.643	118.94
355.107	121.94
355.571	107.54
356.035	104.14
356.498	125.24
356.962	122.94
357.426	127.94
357.89	118.54
358.354	87.74
358.818	80.94
359.281	79.14
359.745	74.14
360.209	70.04
360.673	71.94
361.136	82.84
361.6	82.34
362.064	87.94
362.527	81.04
362.991	92.04
363.454	78.04
363.918	74.94
364.381	77.44
364.845	81.84
365.308	89.94
365.772	83.94
366.235	87.44
366.698	84.34
367.162	86.84
367.625	88.44
368.088	88.44
368.552	89.34
369.015	82.34
369.478	101.24
369.941	104.04
370.404	93.04
370.867	104.04
371.331	106.44
371.794	112.74
372.257	113.14
372.72	118.04
373.183	111.34
373.646	99.64
374.109	105.94
374.572	103.84
375.035	107.54
375.497	106.44
375.96	103.04
376.423	102.74
376.886	115.74
377.349	113.24
377.811	102.54
378.274	109.54
378.737	102.24
379.199	108.74
379.662	117.24
380.125	118.34
380.587	116.64
381.05	123.64
381.512	127.54
381.975	135.14
382.437	134.94
382.9	129.84
383.362	138.34
383.825	148.64
384.287	146.74
384.75	142.54
385.212	141.24
385.674	143.04
386.136	135.84
386.599	129.54
387.061	136.84
387.523	131.24
387.985	137.04
388.447	149.44
388.91	146.14
389.372	160.94
389.834	153.24
390.296	145.44
390.758	156.14
391.22	174.94
391.682	217.74
392.144	328.44
392.606	238.34
393.068	176.14
393.529	170.04
393.991	155.04
394.453	149.24
394.915	164.34
395.377	202.64
395.838	222.64
396.3	156.34
396.762	139.94
397.224	130.94
397.685	135.94
398.147	133.54
398.608	135.04
399.07	136.04
399.531	135.34
399.993	141.34
400.454	155.94
400.916	149.34
401.377	145.04
401.839	150.34
402.3	151.94
402.762	168.74
403.223	184.44
403.684	179.24
404.145	158.24
404.607	163.24
405.068	164.94
405.529	177.94
405.99	190.44
406.451	180.04
406.913	177.24
407.374	163.64
407.835	159.64
408.296	166.04
408.757	180.14
409.218	191.34
409.679	185.14
410.14	177.44
410.601	181.34
411.062	187.04
411.522	201.14
411.983	193.14
412.444	182.64
412.905	185.24
413.366	186.54
413.826	192.44
414.287	214.44
414.748	261.74
415.208	251.84
415.669	212.04
416.13	203.64
416.59	204.44
417.051	209.74
417.511	222.14
417.972	238.54
418.432	241.14
418.893	287.94
419.353	257.44
419.814	199.44
420.274	186.84
420.734	187.14
421.195	196.14
421.655	203.84
422.115	195.44
422.576	198.74
423.036	207.54
423.496	202.74
423.956	220.04
424.416	235.94
424.876	268.84
425.336	260.34
425.797	256.54
426.257	263.04
426.717	244.84
427.177	237.24
427.637	226.34
428.097	232.34
428.556	246.44
429.016	276.34
429.476	265.84
429.936	283.64
430.396	285.74
430.856	295.84
431.315	321.74
431.775	352.54
432.235	396.94
432.694	358.84
433.154	371.14
433.614	398.04
434.073	351.44
434.533	294.84
434.993	284.44
435.452	294.04
435.912	301.24
436.371	286.54
436.83	290.54
437.29	273.54
437.749	259.84
438.209	251.74
438.668	276.74
439.127	289.94
439.587	271.64
440.046	249.64
440.505	264.34
440.964	280.84
441.424	332.34
441.883	319.94
442.342	266.24
442.801	225.84
443.26	227.84
443.719	224.34
444.178	221.44
444.637	213.84
445.096	219.14
445.555	228.24
446.014	229.24
446.473	228.64
446.932	235.14
447.391	225.44
447.849	226.44
448.308	220.94
448.767	226.74
449.226	240.54
449.685	234.74
450.143	251.74
450.602	238.94
451.061	229.04
451.519	232.14
451.978	235.44
452.436	235.84
452.895	246.54
453.353	251.44
453.812	235.74
454.27	239.64
454.729	239.24
455.187	241.24
455.646	242.84
456.104	250.44
456.562	261.24
457.021	272.94
457.479	262.94
457.937	274.14
458.395	255.24
458.854	249.14
459.312	258.94
459.77	280.44
460.228	261.44
460.686	246.64
461.144	246.44
461.602	248.84
462.06	247.34
462.518	250.54
462.976	253.74
463.434	257.14
463.892	263.54
464.35	278.04
464.808	288.44
465.266	268.34
465.724	264.74
466.181	273.54
466.639	270.14
467.097	285.54
467.555	301.64
468.012	310.24
468.47	313.04
468.928	323.14
469.385	339.14
469.843	341.44
470.3	348.84
470.758	359.14
471.215	387.74
471.673	412.74
472.13	408.94
472.588	430.64
473.045	371.74
473.503	373.54
473.96	398.84
474.417	405.54
474.875	436.44
475.332	465.94
475.789	468.54
476.246	460.54
476.704	491.34
477.161	509.94
477.618	531.84
478.075	561.54
478.532	618.04
478.989	694.44
479.446	803.94
479.903	768.74
480.36	807.64
480.817	870.14
481.274	962.24
481.731	1071.64
482.188	1166.04
482.645	1292.34
483.102	1405.54
483.558	1554.34
484.015	1598.74
484.472	1580.34
484.929	1517.94
485.385	1475.94
485.842	1433.04
486.299	1373.94
486.755	1308.74
487.212	1090.74
487.668	933.04
488.125	847.04
488.582	778.34
489.038	742.44
489.494	711.84
489.951	683.54
490.407	674.64
490.864	643.04
491.32	638.24
491.776	635.04
492.233	633.64
492.689	615.54
493.145	602.74
493.602	594.94
494.058	604.14
494.514	617.34
494.97	631.54
495.426	647.04
495.882	621.04
496.338	601.64
496.794	612.24
497.251	611.94
497.707	613.04
498.163	628.94
498.618	630.04
499.074	627.34
499.53	665.44
499.986	669.74
500.442	645.64
500.898	628.44
501.354	618.94
501.809	639.74
502.265	645.94
502.721	657.04
503.177	676.04
503.632	653.34
504.088	670.94
504.543	700.34
504.999	701.74
505.455	644.54
505.91	625.84
506.366	616.24
506.821	617.24
507.277	622.44
507.732	617.34
508.187	617.14
508.643	629.14
509.098	619.44
509.553	639.84
510.009	648.04
510.464	658.94
510.919	685.04
511.375	683.74
511.83	693.44
512.285	710.84
512.74	752.84
513.195	779.94
513.65	753.64
514.105	754.14
514.56	761.74
515.015	779.64
515.47	808.14
515.925	779.04
516.38	774.14
516.835	779.54
517.29	768.24
517.745	762.54
518.2	753.14
518.655	731.24
519.109	724.74
519.564	731.54
520.019	723.54
520.474	719.34
520.928	721.34
521.383	715.14
521.838	709.64
522.292	701.74
522.747	704.84
523.201	692.24
523.656	688.54
524.11	685.64
524.565	686.84
525.019	681.54
525.474	691.74
525.928	695.34
526.382	685.64
526.837	685.94
527.291	691.64
527.745	688.14
528.2	677.34
528.654	687.74
529.108	679.54
529.562	678.54
530.016	684.94
530.47	682.84
530.925	676.54
531.379	684.24
531.833	698.64
532.287	682.24
532.741	690.74
533.195	690.64
533.649	701.94
534.103	707.54
534.556	695.84
535.01	696.54
535.464	691.24
535.918	710.84
536.372	711.64
536.826	704.84
537.279	686.54
537.733	697.34
538.187	696.34
538.64	692.04
539.094	707.04
539.548	716.64
540.001	710.74
540.455	713.24
540.908	724.84
541.362	722.34
541.815	738.34
542.269	759.34
542.722	751.14
543.175	759.94
543.629	761.14
544.082	770.74
544.536	778.14
544.989	781.84
545.442	783.54
545.895	787.64
546.349	774.64
546.802	776.04
547.255	778.84
547.708	789.14
548.161	794.44
548.614	801.54
549.067	822.04
549.52	808.54
549.973	797.14
550.426	797.24
550.879	779.24
551.332	787.14
551.785	785.44
552.238	800.54
552.691	799.94
553.144	818.84
553.596	828.34
554.049	839.54
554.502	869.24
554.955	899.34
555.407	901.14
555.86	891.04
556.313	873.84
556.765	868.84
557.218	865.14
557.67	857.14
558.123	860.94
558.576	855.64
559.028	869.04
559.48	867.74
559.933	863.04
560.385	827.14
560.838	791.44
561.29	771.34
561.742	769.14
562.195	748.94
562.647	748.84
563.099	770.34
563.551	757.14
564.004	772.54
564.456	757.24
564.908	744.84
565.36	732.14
565.812	724.94
566.264	726.94
566.716	722.94
567.168	713.14
567.62	722.64
568.072	695.44
568.524	680.14
568.976	682.64
569.428	677.24
569.88	666.04
570.332	673.64
570.784	678.54
571.235	670.04
571.687	674.74
572.139	694.84
572.59	701.34
573.042	687.64
573.494	704.84
573.945	693.54
574.397	672.74
574.849	670.04
575.3	676.24
575.752	676.74
576.203	669.64
576.655	665.54
577.106	657.44
577.557	664.04
578.009	666.04
578.46	660.14
578.912	663.14
579.363	652.14
579.814	650.24
580.265	655.74
580.717	658.44
581.168	652.34
581.619	667.44
582.07	669.64
582.521	659.84
582.972	665.24
583.423	674.14
583.875	670.54
584.326	701.44
584.777	746.54
585.227	824.54
585.678	926.04
586.129	1021.64
586.58	1104.94
587.031	1184.64
587.482	1344.44
587.933	1537.84
588.384	1332.94
588.834	984.54
589.285	801.34
589.736	777.64
590.186	773.14
590.637	769.24
591.088	736.94
591.538	726.84
591.989	726.04
592.439	719.84
592.89	713.24
593.34	704.74
593.791	706.94
594.241	704.74
594.692	700.84
595.142	694.84
595.593	691.84
596.043	687.84
596.493	709.24
596.943	707.74
597.394	710.94
597.844	702.64
598.294	723.04
598.744	738.34
599.195	770.64
599.645	806.94
600.095	854.04
600.545	896.84
600.995	965.34
601.445	1020.94
601.895	1070.14
602.345	1123.04
602.795	1105.14
603.245	1050.94
603.695	992.54
604.145	934.64
604.594	893.34
605.044	853.54
605.494	785.94
605.944	739.54
606.393	731.94
606.843	721.54
607.293	721.84
607.743	725.44
608.192	736.34
608.642	751.74
609.091	770.94
609.541	760.64
609.99	762.74
610.44	760.14
610.889	718.64
611.339	703.24
611.788	682.14
612.238	706.24
612.687	717.34
613.136	720.54
613.586	731.44
614.035	733.04
614.484	750.54
614.933	769.24
615.383	751.64
615.832	738.34
616.281	715.14
616.73	674.74
617.179	667.24
617.628	652.34
618.077	625.14
618.526	622.74
618.975	601.84
619.424	607.04
619.873	608.54
620.322	611.14
620.771	597.44
621.22	595.74
621.669	583.64
622.118	582.64
622.567	577.14
623.015	562.94
623.464	571.94
623.913	558.44
624.361	543.14
624.81	553.34
625.259	543.54
625.707	546.44
626.156	552.14
626.604	565.64
627.053	557.84
627.501	549.04
627.95	569.84
628.398	576.84
628.847	568.14
629.295	559.64
629.744	573.14
630.192	566.34
630.64	570.34
631.089	564.14
631.537	589.64
631.985	588.74
632.433	599.34
632.881	609.14
633.33	665.64
633.778	660.04
634.226	574.44
634.674	574.04
635.122	577.64
635.57	592.54
636.018	630.74
636.466	582.54
636.914	546.24
637.362	563.04
637.81	569.44
638.258	576.14
638.705	574.54
639.153	614.54
639.601	601.44
640.049	638.74
640.497	657.54
640.944	676.54
641.392	642.34
641.84	610.44
642.287	579.84
642.735	573.04
643.182	575.74
643.63	572.54
644.078	574.24
644.525	585.64
644.973	596.04
645.42	600.14
645.867	613.34
646.315	639.54
646.762	658.84
647.21	697.54
647.657	710.54
648.104	751.24
648.551	776.74
648.999	840.44
649.446	914.74
649.893	1011.34
650.34	1176.04
650.787	1411.84
651.234	1746.04
651.682	2286.84
652.129	3149.64
652.576	4576.44
653.023	6725.74
653.47	9208.64
653.917	11439.04
654.363	13116.14
654.81	14428.44
655.257	13732.84
655.704	8949.44
656.151	5279.44
656.598	3401.64
657.044	2418.14
657.491	1869.54
657.938	1494.24
658.385	1239.84
658.831	1084.04
659.278	959.84
659.724	855.74
660.171	783.34
660.618	716.44
661.064	685.54
661.511	671.64
661.957	646.84
662.404	637.84
662.85	647.64
663.296	629.44
663.743	564.14
664.189	540.54
664.635	538.44
665.082	525.74
665.528	526.44
665.974	515.34
666.42	510.04
666.867	503.74
667.313	490.04
667.759	484.04
668.205	485.54
668.651	491.34
669.097	489.54
669.543	510.24
669.989	473.14
670.435	448.14
670.881	444.24
671.327	442.74
671.773	469.34
672.219	484.64
672.665	546.14
673.11	576.84
673.556	614.14
674.002	653.14
674.448	644.44
674.893	539.84
675.339	466.74
675.785	433.14
676.23	413.34
676.676	387.14
677.122	372.24
677.567	371.24
678.013	366.34
678.458	357.94
678.904	352.34
679.349	350.04
679.794	348.44
680.24	351.24
680.685	342.94
681.131	339.54
681.576	342.84
682.021	345.44
682.466	342.84
682.912	348.04
683.357	346.04
683.802	388.74
684.247	414.74
684.692	449.64
685.137	494.04
685.583	526.64
686.028	563.64
686.473	511.14
686.918	439.84
687.363	420.54
687.807	389.24
688.252	365.14
688.697	359.14
689.142	333.24
689.587	333.24
690.032	329.14
690.477	337.94
690.921	351.44
691.366	379.14
691.811	399.74
692.255	430.14
692.7	460.04
693.145	501.44
693.589	714.74
694.034	1143.44
694.478	1525.34
694.923	1700.74
695.367	2204.34
695.812	1166.44
696.256	493.04
696.701	367.64
697.145	331.74
697.59	321.84
698.034	329.14
698.478	330.84
698.922	327.64
699.367	324.84
699.811	340.84
700.255	356.14
700.699	389.94
701.143	426.34
701.588	473.84
702.032	515.14
702.476	506.84
702.92	493.64
703.364	485.74
703.808	651.24
704.252	1037.34
704.696	1448.34
705.14	1643.44
705.584	2069.14
706.027	1043.04
706.471	512.54
706.915	392.34
707.359	346.54
707.803	314.54
708.246	303.34
708.69	306.14
709.134	313.44
709.577	313.64
710.021	322.04
710.465	304.34
710.908	299.84
711.352	297.44
711.795	312.74
712.239	353.64
712.682	379.04
713.126	410.14
713.569	462.24
714.012	370.74
714.456	324.24
714.899	294.84
715.342	278.54
715.786	259.64
716.229	258.94
716.672	253.44
717.115	247.94
717.558	248.34
718.002	250.84
718.445	264.64
718.888	287.34
719.331	295.34
719.774	306.34
720.217	301.04
720.66	279.34
721.103	260.34
721.546	241.44
721.989	248.24
722.432	226.74
722.874	229.34
723.317	231.04
723.76	238.14
724.203	259.54
724.645	321.44
725.088	447.74
725.531	560.44
725.974	628.74
726.416	530.34
726.859	303.74
727.301	248.34
727.744	236.14
728.187	235.44
728.629	235.74
729.071	236.94
729.514	257.34
729.956	277.84
730.399	280.34
730.841	280.14
731.283	263.94
731.726	264.24
732.168	262.64
732.61	262.44
733.053	278.34
733.495	315.54
733.937	346.04
734.379	397.14
734.821	434.04
735.263	547.94
735.705	840.84
736.148	1609.34
736.59	2568.84
737.032	2951.34
737.474	2408.44
737.916	798.24
738.357	422.64
738.799	317.84
739.241	298.34
739.683	286.44
740.125	285.74
740.567	296.64
741.008	315.54
741.45	310.14
741.892	319.74
742.334	336.54
742.775	353.04
743.217	331.84
743.658	261.84
744.1	248.94
744.542	266.64
744.983	300.54
745.425	340.04
745.866	330.84
746.307	284.44
746.749	293.44
747.19	319.84
747.632	466.64
748.073	907.44
748.514	1903.14
748.956	2804.24
749.397	3525.64
749.838	2922.54
750.279	2871.34
750.72	1447.54
751.162	542.44
751.603	314.74
752.044	253.24
752.485	215.04
752.926	212.64
753.367	202.64
753.808	200.44
754.249	192.64
754.69	190.34
755.131	183.64
755.572	177.64
756.013	178.84
756.453	184.74
756.894	184.94
757.335	188.54
757.776	196.04
758.216	196.64
758.657	193.74
759.098	201.34
759.538	228.14
759.979	264.04
760.42	373.74
760.86	729.34
761.301	1871.94
761.741	4433.84
762.182	6196.34
762.622	4350.74
763.063	1283.34
763.503	539.04
763.943	353.44
764.384	360.14
764.824	427.04
765.264	458.44
765.705	320.84
766.145	214.34
766.585	191.14
767.025	184.54
767.465	191.64
767.906	250.54
768.346	333.04
768.786	357.64
769.226	271.14
769.666	321.64
770.106	635.74
770.546	1597.94
770.986	2586.54
771.426	2271.24
771.866	779.14
772.306	326.04
772.745	205.44
773.185	177.04
773.625	173.04
774.065	162.84
774.505	195.84
774.944	327.84
775.384	726.54
775.824	1282.54
776.263	1236.44
776.703	533.04
777.142	229.44
777.582	157.14
778.021	138.64
778.461	143.24
778.9	138.04
779.34	132.34
779.779	114.74
780.219	108.74
780.658	105.14
781.097	109.14
781.537	110.04
781.976	109.64
782.415	107.54
782.855	103.34
783.294	104.34
783.733	106.84
784.172	110.04
784.611	101.04
785.05	113.14
785.489	116.74
785.928	117.84
786.367	122.34
786.806	110.84
787.245	133.74
787.684	140.34
788.123	147.04
788.562	130.64
789.001	120.14
789.44	118.84
789.879	117.24
790.317	120.04
790.756	129.24
791.195	128.24
791.634	145.64
792.072	202.64
792.511	371.54
792.95	1034.04
793.388	2105.74
793.827	1869.54
794.265	665.24
794.704	275.54
795.142	181.24
795.581	151.84
796.019	137.44
796.458	120.44
796.896	121.54
797.334	130.74
797.773	155.44
798.211	221.54
798.649	443.44
799.087	1023.64
799.526	1584.14
799.964	1999.74
800.402	1926.64
800.84	740.24
801.278	301.74
801.716	182.14
802.154	151.34
802.592	141.94
803.03	145.24
803.468	129.14
803.906	139.04
804.344	150.14
804.782	137.64
805.22	130.44
805.658	132.24
806.096	152.34
806.533	152.44
806.971	174.44
807.409	210.44
807.847	317.54
808.284	674.04
808.722	1883.74
809.16	3220.84
809.597	3131.04
810.035	5352.74
810.472	5532.24
810.91	2023.64
811.347	778.64
811.785	396.34
812.222	245.74
812.66	193.74
813.097	160.24
813.535	142.74
813.972	132.34
814.409	119.84
814.846	107.44
815.284	104.34
815.721	95.14
816.158	106.84
816.595	121.94
817.032	180.94
817.47	195.54
817.907	167.04
818.344	158.84
818.781	119.44
819.218	105.34
819.655	125.14
820.092	183.34
820.529	205.84
820.966	169.44
821.403	134.44
821.839	112.44
822.276	100.14
822.713	122.64
823.15	131.94
823.587	120.34
824.023	150.34
824.46	300.44
824.897	905.44
825.333	1323.24
825.77	566.74
826.206	222.74
826.643	134.84
827.08	104.14
827.516	79.34
827.953	73.84
828.389	78.34
828.825	67.44
829.262	71.44
829.698	66.34
830.135	56.44
830.571	57.04
831.007	61.94
831.443	61.64
831.88	66.74
832.316	61.14
832.752	62.64
833.188	64.74
833.624	62.24
834.06	65.44
834.497	70.94
834.933	73.24
835.369	70.04
835.805	64.44
836.241	77.74
836.677	83.54
837.112	95.34
837.548	105.44
837.984	133.94
838.42	202.54
838.856	507.34
839.292	1527.24
839.727	2228.84
840.163	1052.34
840.599	934.04
841.034	2010.14
841.47	2039.74
841.906	749.44
842.341	334.44
842.777	239.14
843.212	323.54
843.648	317.54
844.083	158.84
844.519	89.94
844.954	82.64
845.39	58.34
845.825	57.94
846.261	54.94
846.696	54.74
847.131	53.64
847.566	54.04
848.002	55.64
848.437	57.14
848.872	62.44
849.307	58.34
849.742	89.14
850.177	182.74
850.613	556.74
851.048	848.24
851.483	364.64
851.918	149.14
852.353	84.84
852.788	59.94
853.223	55.64
853.657	57.04
854.092	45.54
854.527	40.04
854.962	42.44
855.397	50.24
855.832	51.04
856.266	37.34
856.701	40.54
857.136	36.14
857.57	42.34
858.005	47.84
858.44	58.74
858.874	48.84
859.309	51.24
859.743	41.44
860.178	43.54
860.612	42.14
861.047	50.04
861.481	61.84
861.915	64.54
862.35	49.34
862.784	34.74
863.218	38.74
863.653	27.24
864.087	47.94
864.521	55.94
864.955	68.44
865.39	161.14
865.824	170.44
866.258	113.04
866.692	155.64
867.126	170.04
867.56	105.44
867.994	47.84
868.428	37.94
868.862	42.24
869.296	51.64
869.73	54.94
870.164	50.64
870.598	38.74
871.031	36.74
871.465	30.34
871.899	35.64
872.333	24.84
872.766	23.54
873.2	23.04
873.634	27.94
874.067	23.24
874.501	27.04
874.935	31.14
875.368	30.84
875.802	26.64
876.235	21.34
876.669	25.54
877.102	22.04
877.535	30.64
877.969	22.44
878.402	20.54
878.836	18.94
879.269	26.44
879.702	22.64
880.135	19.84
880.569	23.74
881.002	26.14
881.435	23.44
881.868	21.64
882.301	29.04
882.734	13.14
883.167	22.44
883.601	16.44
884.034	24.44
884.467	14.84
884.899	16.64
885.332	17.84
885.765	16.84
886.198	13.94
886.631	15.04
887.064	13.84
887.497	14.64
887.929	25.04
888.362	15.04
888.795	11.94
889.228	18.44
889.66	16.64
890.093	19.84
890.526	19.54
890.958	14.14
891.391	16.84
891.823	23.44
892.256	9.34
892.688	10.84
893.121	15.44
893.553	16.64
893.985	18.34
894.418	22.04
894.85	9.74
895.282	9.94
895.715	13.94
896.147	18.04
896.579	18.94
897.011	10.04
897.444	20.24
897.876	13.54
898.308	18.54
898.74	12.74
899.172	14.34
899.604	19.74
900.036	19.24
900.468	14.84
900.9	17.54
901.332	19.24
901.764	9.64
902.196	19.54
902.628	16.04
903.06	14.44
903.491	24.84
903.923	19.84
904.355	24.44
904.787	24.74
905.218	20.14
905.65	22.64
906.082	12.04
906.513	7.84
906.945	18.14
907.376	18.24
907.808	19.24
908.239	22.24
908.671	18.44
909.102	17.94
909.534	23.44
909.965	50.84
910.397	92.04
910.828	311.94
911.259	458.14
911.691	217.64
912.122	106.24
912.553	45.74
912.984	35.54
913.415	22.44
913.847	21.94
914.278	16.64
914.709	14.84
915.14	13.44
915.571	15.74
916.002	13.54
916.433	21.14
916.864	20.04
917.295	10.44
917.726	25.14
918.157	14.24
918.587	28.74
919.018	21.24
919.449	23.14
919.88	26.44
920.311	26.34
920.741	54.34
921.172	163.74
921.603	149.14
922.033	61.04
922.464	47.84
922.895	26.04
923.325	16.74
923.756	14.14
924.186	12.74
924.617	30.84
925.047	41.04
925.478	57.34
925.908	43.84
926.338	25.74
926.769	18.94
927.199	12.84
927.629	9.84
928.06	18.54
928.49	15.94
928.92	15.24
929.35	10.34
929.78	13.84
930.21	2.94
930.641	12.54
931.071	9.74
931.501	12.34
931.931	5.14
932.361	7.04
932.791	-1.56
933.221	3.74
933.651	7.64
934.08	16.94
934.51	30.64
934.94	9.24
935.37	14.14
935.8	10.04
936.229	5.84
936.659	12.94
937.089	5.34
937.519	8.84
937.948	27.14
938.378	13.74
938.807	1.14
939.237	2.34
939.666	5.54
940.096	-5.06
940.525	1.44
940.955	0.04
941.384	4.54
941.814	-2.86
942.243	-3.46
942.672	-2.06
943.102	-4.96
943.531	-0.46
943.96	4.84
944.39	1.44
944.819	3.64
945.248	6.14
945.677	1.14
946.106	8.34
946.535	9.94
946.964	4.64
947.393	2.44
947.822	1.04
948.251	-3.36
948.68	-0.06
949.109	7.34
949.538	9.24
949.967	3.54
950.396	-4.86
950.825	-1.46
951.254	5.44
951.682	-2.26
952.111	2.84
952.54	1.54
952.969	-6.66
953.397	-5.26
953.826	4.54
954.254	-1.66
954.683	-2.26
955.112	-6.96
955.54	-2.36
955.969	2.14
956.397	-1.26
956.826	-1.36
957.254	1.34
957.682	2.94
958.111	4.54
958.539	3.44
958.967	-0.16
959.396	-1.16
959.824	1.84
960.252	-0.36
960.68	-3.96
961.109	-3.46
961.537	-2.66
961.965	-2.16
962.393	-1.06
962.821	1.04
963.249	0.14
963.677	1.34
964.105	2.94
964.533	42.94
964.961	42.34
965.389	24.64
965.817	6.34
966.245	8.44
966.672	1.14
967.1	-7.76
967.528	-0.96
967.956	-0.56
968.383	4.34
968.811	-3.66
969.239	-3.26
969.666	-5.06
970.094	2.74
970.522	0.94
970.949	-2.06
971.377	-8.16
971.804	-0.26
972.232	-5.66
972.659	-3.06
973.087	1.04
973.514	-7.76
973.941	-4.96
974.369	2.34
974.796	-3.56
975.223	-4.46
975.651	-1.86
976.078	2.34
976.505	-1.16
976.932	-1.06
977.359	14.34
977.786	15.14
978.214	-1.56
978.641	-3.16
979.068	-7.86
979.495	-3.76
979.922	-0.16
980.349	-1.36
980.776	0.94
981.202	3.84
981.629	6.84
982.056	1.84
982.483	-3.76
982.91	1.14
983.337	-4.16
983.763	7.94
984.19	-1.46
984.617	-6.06
985.043	-2.86
985.47	-2.96
985.897	-8.66
986.323	-7.36
986.75	3.14
987.176	-1.96
987.603	-5.76
988.029	-6.56
988.456	-1.86
988.882	5.74
989.308	-3.46
989.735	-5.86
990.161	0.14
990.587	-6.66
991.014	7.94
991.44	2.64
991.866	2.44
992.292	-7.76
992.719	-4.96
993.145	1.14
993.571	-9.36
993.997	-5.16
994.423	2.94
994.849	-1.46
995.275	4.14
995.701	1.24
996.127	-6.36
996.553	7.14
996.979	-6.36
997.405	-0.16
997.83	-5.26
998.256	-4.46
998.682	-1.36
999.108	-13.06
999.534	-1.76
999.959	0.14
1000.385	-0.96
1000.811	2.64
1001.236	-2.36
1001.662	-8.36
1002.087	-12.36
1002.513	0.34
1002.938	-3.36
1003.364	-0.06
1003.789	-3.46
1004.215	5.24
1004.64	-0.26
1005.066	1.04
1005.491	0.44
1005.916	-3.36
1006.342	-0.46
1006.767	-10.06
1007.192	3.94
1007.617	-3.56
1008.042	-5.16
1008.468	-5.16
1008.893	-2.36
1009.318	-0.26
1009.743	1.14
1010.168	2.14
1010.593	1.04
1011.018	-9.86
1011.443	-5.96
1011.868	-1.66
1012.293	-5.46
1012.718	-4.66
1013.143	-4.76
1013.567	0.74
1013.992	-1.56
1014.417	-9.06
1014.842	0.24
1015.267	-8.06
1015.691	-4.06
1016.116	0.04
1016.541	-10.86
1016.965	0.44
1017.39	1.94
1017.814	6.34
1018.239	-1.46
1018.663	-10.26
1019.088	-9.16
1019.512	-3.66
1019.937	-6.06
1020.361	-4.06
1020.785	-7.86
1021.21	-0.76
1021.634	-5.76
1022.058	0.94
1022.483	0.54
1022.907	-5.06
1023.331	-6.16
1023.755	-2.46
1024.179	-2.66
1024.604	-3.76
1025.028	-5.96
1025.452	-3.76
1025.876	-7.46
1026.3	-1.96
1026.724	-14.16
1027.148	0.44
1027.572	-14.56
1027.996	-6.06
1028.42	-5.86
1028.843	-7.16
1029.267	-5.96
1029.691	-4.46
1030.115	-5.36
1030.539	-7.46
1030.962	-7.86
1031.386	-11.76
1031.81	-5.06
1032.233	-3.46
1032.657	-6.26
1033.08	-3.96
1033.504	1.84
1033.927	-8.96
1034.351	-3.96
1034.774	-3.66
1035.198	-9.96
1035.621	-8.86
1036.045	-6.06
1036.468	0.44
1036.891	-9.86
1037.315	-12.06
1037.738	-12.76
1038.161	-3.66
1038.584	-4.76
1039.008	-3.96
1039.431	-0.06
1039.854	0.44
1040.277	-8.16
1040.7	-11.86
1041.123	-2.86
1041.546	-8.56
1041.969	-2.36
1042.392	-4.76
1042.815	-4.26
1043.238	-2.36
1043.661	3.84
1044.084	-3.86
1044.507	-5.26
1044.93	-3.96
1045.352	-10.66
1045.775	-4.76
1046.198	0.24
1046.621	-3.56
1047.043	-2.66
1047.466	2.14
1047.889	-4.46
1048.311	-5.46
1048.734	-3.06
1049.156	-0.96
1049.579	-0.56
1050.001	-8.16
1050.424	2.64
1050.846	-6.26
1051.269	-3.76
1051.691	-2.86
1052.113	-5.26
1052.536	-5.06
1052.958	-1.96
1053.38	-6.76
1053.802	-8.36
1054.225	0.44
1054.647	-11.96
1055.069	-8.86
1055.491	3.94
1055.913	-9.76
1056.335	-2.16
1056.757	-4.86
1057.179	-5.86
1057.601	-3.16
1058.023	-3.96
1058.445	-5.36
1058.867	-8.26
1059.289	-5.86
1059.711	-9.76
1060.133	-7.96
1060.555	-6.76
1060.976	-6.46
1061.398	-9.56
1061.82	-11.16
1062.241	-0.36
1062.663	-14.46
1063.085	-6.76
1063.506	-1.56
1063.928	-9.66
1064.35	-0.66
1064.771	-12.36
1065.193	-10.06
1065.614	-10.56
1066.035	2.34
1066.457	-2.36
1066.878	1.74
1067.3	-5.66
1067.721	-3.26
1068.142	-4.06
1068.564	-1.06
1068.985	-5.36
1069.406	-3.36
1069.827	-8.66
1070.248	-6.66
1070.67	-13.76
1071.091	-10.96
1071.512	-2.86
1071.933	-4.76
1072.354	-11.66
1072.775	-8.86
1073.196	-11.76
1073.617	-2.96
1074.038	-10.06
1074.459	-2.96
1074.88	-4.66
1075.3	-1.56
1075.721	-7.56
1076.142	-1.96
1076.563	-6.86
1076.983	-14.66
1077.404	-6.26
1077.825	-8.66
1078.246	-4.86
1078.666	-15.36
1079.087	-2.46
1079.507	-6.66
1079.928	-3.86
1080.348	-0.76
1080.769	-6.86
1081.189	-4.16
1081.61	-2.36
1082.03	-6.96
1082.451	-7.66
1082.871	-3.76
1083.291	0.34
1083.711	-9.96
1084.132	-7.96
1084.552	-9.66
1084.972	-3.06
1085.392	-14.86
1085.813	-7.46
1086.233	-4.16
1086.653	-8.56
1087.073	-6.66
1087.493	-8.06
1087.913	-7.76
1088.333	-6.66
1088.753	-3.26
1089.173	2.84
1089.593	-0.06
1090.013	3.54
1090.433	-1.76
1090.852	-1.76
1091.272	-2.86
1091.692	-5.16
1092.112	-1.96
1092.531	-4.66
1092.951	-12.76
1093.371	-2.66
1093.79	-3.56
1094.21	-4.66
1094.63	-5.56
1095.049	-6.36
1095.469	-5.16
1095.888	-4.56
1096.308	1.74
1096.727	3.04
1097.146	-2.56
1097.566	-1.56
1097.985	-7.16
1098.405	-4.66
1098.824	-15.56
1099.243	-9.06
1099.662	-6.86
1100.082	-8.26
1100.501	-4.56
1100.92	-8.16
1101.339	-4.56
1101.758	-4.76
