Data from 20171114-ORNL-Ar_H_NY_Subt18_08-05-42-517.txt Node
Date: Tue Nov 14 08:05:42 EST 2017
User: Ender
Spectrometer: HR+D1039
Trigger mode: 0
Integration Time (sec): 2.730000E-2
Scans to average: 10
Electric dark correction enabled: true
Nonlinearity correction enabled: false
Boxcar width: 0
XAxis mode: Wavelengths
Number of Pixels in Spectrum: 2048
>>>>>Begin Spectral Data<<<<<
187.836	-5.95
188.309	-5.95
188.782	-5.95
189.255	-1.95
189.728	-0.85
190.201	5.05
190.674	-2.85
191.147	2.75
191.619	-2.05
192.092	0.95
192.565	2.85
193.038	2.65
193.511	2.05
193.984	-1.45
194.456	-1.35
194.929	-1.05
195.402	-4.45
195.874	5.65
196.347	-0.35
196.82	-7.55
197.292	4.75
197.765	2.05
198.237	-3.65
198.71	5.05
199.182	2.45
199.655	0.35
200.127	0.75
200.6	4.05
201.072	-0.65
201.544	-2.25
202.017	-4.75
202.489	8.85
202.961	-1.25
203.433	-1.55
203.906	-1.95
204.378	-1.85
204.85	-2.55
205.322	-5.05
205.794	-2.95
206.266	-2.95
206.739	-6.65
207.211	6.15
207.683	-6.35
208.155	-4.15
208.627	-6.45
209.099	1.45
209.57	-6.65
210.042	-7.05
210.514	-3.35
210.986	-3.95
211.458	-7.75
211.93	-1.75
212.402	3.65
212.873	2.55
213.345	-8.75
213.817	-8.65
214.288	-5.15
214.76	-9.75
215.232	-2.85
215.703	-1.35
216.175	-4.15
216.646	-3.25
217.118	-2.95
217.589	-1.95
218.061	-2.65
218.532	-7.45
219.004	-2.95
219.475	-5.25
219.946	-5.35
220.418	-5.65
220.889	2.85
221.36	-3.05
221.832	-1.25
222.303	-6.75
222.774	-2.55
223.245	-5.05
223.717	-7.25
224.188	-3.65
224.659	-1.35
225.13	-5.35
225.601	-3.55
226.072	4.25
226.543	-0.45
227.014	0.05
227.485	-0.75
227.956	-0.55
228.427	0.45
228.898	1.75
229.369	7.55
229.839	-1.65
230.31	-3.85
230.781	8.55
231.252	-3.35
231.722	-5.45
232.193	-2.55
232.664	4.85
233.135	-0.15
233.605	1.35
234.076	-4.25
234.546	0.25
235.017	0.75
235.487	1.75
235.958	-1.35
236.428	-2.75
236.899	6.75
237.369	3.95
237.84	0.05
238.31	8.05
238.78	3.45
239.251	-4.45
239.721	3.75
240.191	-0.95
240.662	-1.85
241.132	4.75
241.602	-3.05
242.072	3.75
242.542	3.15
243.013	1.35
243.483	7.85
243.953	8.55
244.423	5.25
244.893	1.75
245.363	4.55
245.833	5.85
246.303	0.25
246.773	7.95
247.243	4.95
247.712	2.05
248.182	12.35
248.652	10.35
249.122	2.95
249.592	15.55
250.061	22.05
250.531	37.55
251.001	18.95
251.471	19.65
251.94	20.45
252.41	7.65
252.879	1.45
253.349	19.45
253.818	12.75
254.288	4.05
254.757	5.05
255.227	6.05
255.696	4.25
256.166	4.35
256.635	5.05
257.105	10.85
257.574	2.05
258.043	15.85
258.513	11.05
258.982	14.45
259.451	6.95
259.92	21.45
260.389	14.95
260.859	25.15
261.328	9.25
261.797	23.05
262.266	6.25
262.735	4.55
263.204	8.15
263.673	-1.55
264.142	13.25
264.611	-0.25
265.08	3.25
265.549	-0.55
266.018	6.05
266.487	0.05
266.955	-1.25
267.424	-0.55
267.893	5.05
268.362	5.35
268.83	11.25
269.299	20.75
269.768	9.75
270.236	9.55
270.705	3.65
271.174	5.85
271.642	14.45
272.111	11.75
272.579	19.45
273.048	22.85
273.516	31.95
273.985	26.25
274.453	27.75
274.922	28.25
275.39	12.35
275.858	6.25
276.327	10.35
276.795	17.75
277.263	12.65
277.731	34.95
278.2	53.75
278.668	59.55
279.136	51.25
279.604	24.05
280.072	16.85
280.54	16.15
281.008	10.25
281.477	19.25
281.945	13.55
282.413	13.95
282.881	19.45
283.348	14.25
283.816	15.35
284.284	15.45
284.752	21.65
285.22	10.55
285.688	26.85
286.156	30.85
286.623	49.45
287.091	53.35
287.559	36.75
288.026	22.05
288.494	18.85
288.962	7.15
289.429	12.85
289.897	18.45
290.364	10.05
290.832	17.55
291.3	17.75
291.767	20.95
292.234	21.25
292.702	18.75
293.169	19.05
293.637	24.85
294.104	21.15
294.571	15.15
295.039	20.75
295.506	11.65
295.973	20.95
296.44	20.15
296.908	20.45
297.375	31.55
297.842	27.75
298.309	17.75
298.776	20.45
299.243	27.75
299.71	16.35
300.177	27.35
300.644	23.65
301.111	27.05
301.578	21.85
302.045	16.45
302.512	24.85
302.979	24.85
303.446	25.75
303.913	21.25
304.379	22.45
304.846	35.05
305.313	26.55
305.78	22.95
306.246	26.35
306.713	29.55
307.18	30.85
307.646	32.55
308.113	32.75
308.579	25.85
309.046	26.85
309.512	31.95
309.979	25.75
310.445	32.55
310.912	31.95
311.378	43.05
311.845	30.65
312.311	29.05
312.777	33.25
313.244	34.35
313.71	38.85
314.176	31.05
314.642	32.05
315.109	38.55
315.575	39.75
316.041	43.85
316.507	34.45
316.973	37.25
317.439	36.35
317.905	37.85
318.371	39.75
318.837	33.95
319.303	36.75
319.769	44.85
320.235	40.25
320.701	42.15
321.167	32.15
321.633	44.25
322.099	44.85
322.564	45.35
323.03	38.15
323.496	43.55
323.962	49.25
324.427	39.95
324.893	45.55
325.359	41.15
325.824	41.65
326.29	43.75
326.755	45.25
327.221	48.55
327.686	45.45
328.152	50.65
328.617	44.75
329.083	50.45
329.548	53.95
330.014	49.25
330.479	41.95
330.944	47.55
331.41	46.25
331.875	46.95
332.34	48.35
332.805	49.55
333.271	47.65
333.736	45.65
334.201	55.55
334.666	51.35
335.131	55.65
335.596	60.75
336.061	55.75
336.526	45.65
336.991	53.25
337.456	58.65
337.921	51.65
338.386	47.45
338.851	48.35
339.316	50.55
339.781	49.45
340.246	59.85
340.711	46.45
341.175	57.35
341.64	53.35
342.105	55.75
342.569	58.65
343.034	57.65
343.499	57.95
343.963	54.65
344.428	65.05
344.893	63.15
345.357	62.05
345.822	67.55
346.286	76.35
346.751	78.05
347.215	77.35
347.679	75.05
348.144	107.05
348.608	87.35
349.073	73.95
349.537	77.75
350.001	86.05
350.465	87.45
350.93	87.55
351.394	87.05
351.858	77.45
352.322	90.25
352.786	92.05
353.25	111.45
353.715	114.05
354.179	102.95
354.643	122.15
355.107	125.75
355.571	107.35
356.035	109.65
356.498	124.45
356.962	126.95
357.426	130.45
357.89	121.35
358.354	94.95
358.818	85.95
359.281	86.95
359.745	76.15
360.209	78.85
360.673	80.45
361.136	80.85
361.6	81.95
362.064	85.35
362.527	88.85
362.991	96.25
363.454	80.25
363.918	78.25
364.381	77.15
364.845	79.15
365.308	88.35
365.772	93.85
366.235	88.65
366.698	84.65
367.162	87.05
367.625	87.65
368.088	89.45
368.552	91.05
369.015	89.25
369.478	101.25
369.941	103.05
370.404	96.15
370.867	103.85
371.331	109.85
371.794	117.65
372.257	106.75
372.72	120.15
373.183	113.75
373.646	110.25
374.109	108.65
374.572	112.45
375.035	108.45
375.497	109.45
375.96	106.25
376.423	99.35
376.886	119.95
377.349	107.45
377.811	108.35
378.274	111.55
378.737	111.05
379.199	121.35
379.662	113.55
380.125	123.85
380.587	111.25
381.05	123.55
381.512	127.15
381.975	138.65
382.437	128.95
382.9	130.75
383.362	127.85
383.825	140.85
384.287	145.85
384.75	136.65
385.212	139.75
385.674	137.35
386.136	135.75
386.599	130.85
387.061	131.05
387.523	131.45
387.985	134.05
388.447	144.55
388.91	139.45
389.372	150.75
389.834	151.75
390.296	144.95
390.758	149.35
391.22	171.35
391.682	204.35
392.144	289.85
392.606	229.45
393.068	170.65
393.529	167.95
393.991	151.15
394.453	149.75
394.915	164.65
395.377	183.55
395.838	216.05
396.3	153.25
396.762	140.45
397.224	135.25
397.685	126.75
398.147	124.75
398.608	130.35
399.07	136.45
399.531	133.65
399.993	142.35
400.454	154.85
400.916	141.95
401.377	142.55
401.839	150.85
402.3	151.95
402.762	162.25
403.223	182.85
403.684	175.55
404.145	163.25
404.607	155.65
405.068	161.65
405.529	170.15
405.99	189.05
406.451	179.35
406.913	176.45
407.374	159.65
407.835	160.85
408.296	171.35
408.757	171.35
409.218	188.75
409.679	177.75
410.14	176.65
410.601	181.35
411.062	186.65
411.522	189.55
411.983	185.55
412.444	172.25
412.905	173.25
413.366	178.65
413.826	195.15
414.287	207.85
414.748	262.25
415.208	255.85
415.669	214.55
416.13	203.35
416.59	194.15
417.051	216.55
417.511	215.75
417.972	234.95
418.432	247.95
418.893	282.15
419.353	250.15
419.814	195.95
420.274	183.75
420.734	182.55
421.195	204.95
421.655	196.25
422.115	192.85
422.576	194.85
423.036	199.75
423.496	210.35
423.956	212.35
424.416	230.55
424.876	264.95
425.336	262.95
425.797	267.45
426.257	255.45
426.717	238.45
427.177	237.25
427.637	227.15
428.097	240.05
428.556	240.75
429.016	275.75
429.476	262.55
429.936	276.25
430.396	277.95
430.856	292.35
431.315	330.05
431.775	336.05
432.235	387.55
432.694	366.35
433.154	363.85
433.614	387.15
434.073	336.65
434.533	283.75
434.993	272.95
435.452	279.75
435.912	292.45
436.371	290.55
436.83	285.95
437.29	269.55
437.749	248.05
438.209	251.75
438.668	276.25
439.127	297.85
439.587	271.45
440.046	252.05
440.505	261.95
440.964	281.35
441.424	330.55
441.883	312.65
442.342	258.15
442.801	223.45
443.26	216.05
443.719	220.55
444.178	220.55
444.637	213.95
445.096	228.05
445.555	225.45
446.014	227.65
446.473	223.75
446.932	230.95
447.391	223.05
447.849	220.95
448.308	218.15
448.767	216.05
449.226	236.35
449.685	236.55
450.143	253.65
450.602	242.25
451.061	226.45
451.519	236.05
451.978	238.05
452.436	243.95
452.895	243.25
453.353	253.75
453.812	244.05
454.27	238.65
454.729	247.15
455.187	236.15
455.646	248.05
456.104	247.75
456.562	264.15
457.021	270.15
457.479	257.85
457.937	266.55
458.395	269.05
458.854	243.35
459.312	258.45
459.77	279.45
460.228	253.85
460.686	247.35
461.144	254.25
461.602	243.35
462.06	244.45
462.518	260.05
462.976	259.35
463.434	262.75
463.892	267.35
464.35	272.95
464.808	298.35
465.266	267.95
465.724	268.45
466.181	273.35
466.639	276.45
467.097	291.55
467.555	306.45
468.012	311.05
468.47	321.45
468.928	328.85
469.385	340.85
469.843	360.45
470.3	347.15
470.758	365.55
471.215	387.25
471.673	412.65
472.13	407.55
472.588	412.55
473.045	375.55
473.503	374.45
473.96	388.55
474.417	408.15
474.875	438.55
475.332	473.65
475.789	461.85
476.246	475.55
476.704	489.75
477.161	507.25
477.618	534.95
478.075	561.95
478.532	617.75
478.989	704.25
479.446	817.75
479.903	769.85
480.36	811.25
480.817	871.75
481.274	973.85
481.731	1087.45
482.188	1175.05
482.645	1310.75
483.102	1413.85
483.558	1558.05
484.015	1607.45
484.472	1579.75
484.929	1536.85
485.385	1474.35
485.842	1434.95
486.299	1381.25
486.755	1310.95
487.212	1099.25
487.668	925.95
488.125	856.85
488.582	789.95
489.038	751.45
489.494	716.35
489.951	693.15
490.407	678.65
490.864	647.65
491.32	650.85
491.776	638.45
492.233	642.75
492.689	620.25
493.145	613.15
493.602	602.05
494.058	610.25
494.514	621.15
494.97	644.35
495.426	661.45
495.882	620.25
496.338	613.45
496.794	630.25
497.251	619.65
497.707	648.65
498.163	644.85
498.618	654.35
499.074	656.75
499.53	689.35
499.986	682.85
500.442	659.85
500.898	642.75
501.354	630.45
501.809	633.85
502.265	649.55
502.721	647.45
503.177	666.85
503.632	666.05
504.088	680.75
504.543	708.45
504.999	707.25
505.455	663.65
505.91	634.45
506.366	641.55
506.821	626.75
507.277	624.65
507.732	626.65
508.187	625.75
508.643	633.15
509.098	639.05
509.553	656.65
510.009	673.85
510.464	666.75
510.919	691.45
511.375	705.95
511.83	716.05
512.285	732.55
512.74	767.35
513.195	787.35
513.65	777.25
514.105	772.35
514.56	780.05
515.015	807.95
515.47	812.55
515.925	796.95
516.38	791.85
516.835	792.05
517.29	786.55
517.745	779.65
518.2	760.95
518.655	750.05
519.109	752.65
519.564	751.25
520.019	738.05
520.474	733.85
520.928	727.15
521.383	724.35
521.838	714.15
522.292	713.95
522.747	718.35
523.201	707.45
523.656	688.45
524.11	692.35
524.565	688.45
525.019	693.65
525.474	700.65
525.928	698.65
526.382	697.45
526.837	701.05
527.291	706.75
527.745	707.35
528.2	697.65
528.654	693.35
529.108	689.35
529.562	691.15
530.016	693.85
530.47	686.75
530.925	694.85
531.379	705.35
531.833	712.35
532.287	707.95
532.741	703.75
533.195	715.85
533.649	717.95
534.103	728.05
534.556	719.15
535.01	713.85
535.464	715.35
535.918	722.05
536.372	723.45
536.826	722.95
537.279	717.45
537.733	723.05
538.187	723.05
538.64	721.75
539.094	719.25
539.548	729.45
540.001	733.75
540.455	732.05
540.908	741.65
541.362	734.15
541.815	747.35
542.269	758.35
542.722	760.25
543.175	768.75
543.629	768.35
544.082	790.15
544.536	799.05
544.989	787.35
545.442	789.15
545.895	793.75
546.349	789.45
546.802	788.95
547.255	789.35
547.708	805.95
548.161	813.15
548.614	826.55
549.067	836.95
549.52	820.35
549.973	811.95
550.426	799.65
550.879	795.65
551.332	794.05
551.785	806.25
552.238	806.05
552.691	822.75
553.144	837.45
553.596	850.35
554.049	867.55
554.502	898.65
554.955	920.05
555.407	916.25
555.86	907.55
556.313	899.85
556.765	884.15
557.218	879.15
557.67	894.75
558.123	883.95
558.576	886.45
559.028	876.55
559.48	883.75
559.933	866.45
560.385	832.45
560.838	798.75
561.29	787.05
561.742	775.25
562.195	766.45
562.647	771.65
563.099	770.35
563.551	772.25
564.004	777.25
564.456	782.05
564.908	766.05
565.36	742.65
565.812	729.25
566.264	728.05
566.716	713.65
567.168	720.85
567.62	715.35
568.072	705.75
568.524	696.75
568.976	694.05
569.428	673.55
569.88	669.25
570.332	689.15
570.784	688.85
571.235	677.45
571.687	699.75
572.139	699.05
572.59	709.95
573.042	710.95
573.494	703.35
573.945	702.65
574.397	691.95
574.849	688.35
575.3	697.15
575.752	685.85
576.203	676.55
576.655	685.45
577.106	670.85
577.557	666.45
578.009	666.05
578.46	662.95
578.912	671.55
579.363	667.65
579.814	663.15
580.265	660.75
580.717	661.75
581.168	665.35
581.619	683.75
582.07	672.55
582.521	668.85
582.972	680.25
583.423	674.95
583.875	669.35
584.326	699.25
584.777	736.85
585.227	808.15
585.678	899.85
586.129	988.45
586.58	1049.75
587.031	1129.45
587.482	1277.65
587.933	1437.35
588.384	1254.95
588.834	955.75
589.285	800.35
589.736	766.55
590.186	755.65
590.637	762.15
591.088	742.75
591.538	733.85
591.989	726.95
592.439	723.35
592.89	725.85
593.34	716.35
593.791	701.75
594.241	700.35
594.692	699.95
595.142	702.45
595.593	695.05
596.043	699.95
596.493	715.45
596.943	709.35
597.394	713.85
597.844	710.45
598.294	721.15
598.744	743.15
599.195	763.45
599.645	808.85
600.095	847.85
600.545	902.25
600.995	957.25
601.445	1005.85
601.895	1062.35
602.345	1116.95
602.795	1117.45
603.245	1046.95
603.695	992.65
604.145	944.35
604.594	896.85
605.044	854.55
605.494	784.05
605.944	744.25
606.393	741.95
606.843	714.25
607.293	728.25
607.743	721.75
608.192	738.25
608.642	753.05
609.091	759.75
609.541	764.35
609.99	756.45
610.44	755.75
610.889	709.95
611.339	688.15
611.788	678.05
612.238	697.35
612.687	706.05
613.136	709.65
613.586	722.95
614.035	729.85
614.484	743.55
614.933	741.15
615.383	733.75
615.832	713.25
616.281	708.55
616.73	674.95
617.179	655.55
617.628	636.75
618.077	620.15
618.526	598.65
618.975	611.85
619.424	598.45
619.873	597.65
620.322	614.95
620.771	601.15
621.22	597.95
621.669	579.25
622.118	577.05
622.567	569.65
623.015	556.55
623.464	558.75
623.913	556.65
624.361	542.75
624.81	542.85
625.259	544.55
625.707	545.85
626.156	548.25
626.604	558.25
627.053	557.05
627.501	549.45
627.95	554.05
628.398	563.65
628.847	553.45
629.295	551.05
629.744	566.45
630.192	562.55
630.64	556.15
631.089	546.55
631.537	565.15
631.985	568.95
632.433	592.15
632.881	589.55
633.33	641.75
633.778	623.05
634.226	560.35
634.674	560.55
635.122	566.55
635.57	582.55
636.018	607.05
636.466	570.95
636.914	546.85
637.362	559.75
637.81	562.85
638.258	567.75
638.705	563.05
639.153	593.05
639.601	603.25
640.049	627.95
640.497	657.15
640.944	676.15
641.392	631.35
641.84	596.95
642.287	573.35
642.735	555.15
643.182	558.65
643.63	561.45
644.078	561.95
644.525	577.15
644.973	575.75
645.42	589.15
645.867	611.85
646.315	624.65
646.762	650.15
647.21	676.55
647.657	697.35
648.104	730.15
648.551	747.75
648.999	823.15
649.446	887.45
649.893	989.05
650.34	1134.35
650.787	1345.75
651.234	1666.35
651.682	2177.75
652.129	2995.25
652.576	4259.05
653.023	6311.85
653.47	8672.25
653.917	10882.35
654.363	12602.05
654.81	14003.05
655.257	13342.35
655.704	8761.95
656.151	5161.15
656.598	3333.15
657.044	2374.45
657.491	1820.15
657.938	1474.75
658.385	1215.75
658.831	1060.65
659.278	949.35
659.724	825.15
660.171	783.35
660.618	709.25
661.064	669.85
661.511	648.75
661.957	642.55
662.404	626.55
662.85	625.85
663.296	605.55
663.743	547.05
664.189	528.65
664.635	517.45
665.082	513.75
665.528	512.65
665.974	509.25
666.42	495.95
666.867	496.75
667.313	480.75
667.759	470.85
668.205	462.85
668.651	470.75
669.097	470.85
669.543	486.45
669.989	454.45
670.435	434.95
670.881	437.05
671.327	437.95
671.773	448.15
672.219	482.25
672.665	525.95
673.11	562.15
673.556	606.55
674.002	649.85
674.448	630.55
674.893	529.75
675.339	464.95
675.785	420.55
676.23	400.25
676.676	380.75
677.122	367.05
677.567	362.55
678.013	353.75
678.458	350.75
678.904	349.45
679.349	331.65
679.794	341.75
680.24	342.55
680.685	325.25
681.131	333.15
681.576	333.05
682.021	335.95
682.466	332.15
682.912	328.45
683.357	341.85
683.802	370.45
684.247	398.45
684.692	444.35
685.137	481.65
685.583	520.35
686.028	544.55
686.473	497.15
686.918	433.35
687.363	406.65
687.807	374.95
688.252	356.55
688.697	341.35
689.142	324.25
689.587	318.65
690.032	314.75
690.477	337.75
690.921	337.55
691.366	366.25
691.811	390.15
692.255	421.45
692.7	446.55
693.145	485.45
693.589	652.35
694.034	1063.75
694.478	1459.35
694.923	1674.25
695.367	2180.05
695.812	1146.85
696.256	472.45
696.701	357.65
697.145	332.45
697.59	315.85
698.034	303.35
698.478	316.55
698.922	318.15
699.367	311.25
699.811	326.75
700.255	348.45
700.699	371.75
701.143	410.95
701.588	456.55
702.032	496.35
702.476	491.25
702.92	472.35
703.364	476.85
703.808	602.55
704.252	974.95
704.696	1372.65
705.14	1611.05
705.584	2058.55
706.027	1024.25
706.471	503.65
706.915	381.95
707.359	347.95
707.803	304.25
708.246	302.55
708.69	301.45
709.134	301.25
709.577	302.75
710.021	305.75
710.465	300.55
710.908	297.85
711.352	288.65
711.795	300.45
712.239	338.15
712.682	365.85
713.126	400.15
713.569	442.05
714.012	358.25
714.456	306.45
714.899	292.95
715.342	275.75
715.786	253.35
716.229	249.55
716.672	239.45
717.115	240.35
717.558	239.95
718.002	243.35
718.445	248.55
718.888	272.75
719.331	269.75
719.774	292.35
720.217	296.35
720.66	279.15
721.103	252.85
721.546	242.95
721.989	240.85
722.432	214.15
722.874	225.75
723.317	217.55
723.76	225.65
724.203	245.35
724.645	305.95
725.088	420.95
725.531	541.05
725.974	612.45
726.416	527.55
726.859	295.25
727.301	241.35
727.744	226.45
728.187	221.25
728.629	227.95
729.071	241.95
729.514	252.35
729.956	258.45
730.399	272.05
730.841	287.85
731.283	263.65
731.726	246.85
732.168	249.55
732.61	258.75
733.053	285.65
733.495	297.75
733.937	335.55
734.379	383.85
734.821	417.35
735.263	513.55
735.705	782.85
736.148	1479.05
736.59	2429.45
737.032	2941.95
737.474	2394.85
737.916	775.45
738.357	408.15
738.799	304.15
739.241	286.55
739.683	272.05
740.125	279.75
740.567	286.85
741.008	307.55
741.45	300.95
741.892	305.85
742.334	334.75
742.775	349.95
743.217	323.15
743.658	266.75
744.1	245.45
744.542	248.75
744.983	296.25
745.425	337.05
745.866	332.85
746.307	273.35
746.749	265.55
747.19	308.35
747.632	423.25
748.073	821.35
748.514	1742.15
748.956	2707.95
749.397	3393.25
749.838	2818.35
750.279	2844.35
750.72	1441.15
751.162	517.35
751.603	313.55
752.044	237.25
752.485	199.95
752.926	202.65
753.367	192.35
753.808	182.15
754.249	185.25
754.69	179.55
755.131	175.55
755.572	175.95
756.013	172.05
756.453	171.95
756.894	178.45
757.335	179.45
757.776	192.25
758.216	186.35
758.657	188.05
759.098	190.55
759.538	209.85
759.979	254.55
760.42	353.75
760.86	660.45
761.301	1686.85
761.741	4158.85
762.182	6176.45
762.622	4361.45
763.063	1254.15
763.503	514.25
763.943	325.35
764.384	312.15
764.824	381.55
765.264	413.95
765.705	283.55
766.145	201.05
766.585	174.55
767.025	171.95
767.465	177.75
767.906	227.85
768.346	301.15
768.786	318.65
769.226	244.85
769.666	300.45
770.106	571.15
770.546	1448.65
770.986	2524.35
771.426	2278.35
771.866	762.75
772.306	309.85
772.745	202.25
773.185	168.35
773.625	169.05
774.065	157.35
774.505	185.15
774.944	278.35
775.384	619.05
775.824	1146.95
776.263	1146.45
776.703	478.55
777.142	211.35
777.582	150.45
778.021	126.55
778.461	129.85
778.9	138.55
779.34	123.35
779.779	112.65
780.219	101.25
780.658	111.75
781.097	108.85
781.537	112.35
781.976	107.05
782.415	101.95
782.855	104.55
783.294	95.95
783.733	101.45
784.172	108.15
784.611	99.25
785.05	103.35
785.489	114.05
785.928	113.85
786.367	116.95
786.806	112.35
787.245	129.05
787.684	136.35
788.123	148.05
788.562	124.35
789.001	122.35
789.44	114.05
789.879	111.75
790.317	115.15
790.756	120.05
791.195	127.85
791.634	138.25
792.072	190.65
792.511	338.55
792.95	933.25
793.388	2049.85
793.827	1871.55
794.265	647.55
794.704	274.95
795.142	173.55
795.581	147.55
796.019	129.05
796.458	125.15
796.896	118.05
797.334	120.45
797.773	149.55
798.211	214.55
798.649	407.45
799.087	970.45
799.526	1509.85
799.964	1907.15
800.402	1943.85
800.84	727.25
801.278	283.35
801.716	183.45
802.154	147.75
802.592	139.25
803.03	139.05
803.468	130.55
803.906	131.65
804.344	138.55
804.782	131.95
805.22	130.45
805.658	122.25
806.096	141.55
806.533	142.25
806.971	167.05
807.409	202.75
807.847	299.75
808.284	610.75
808.722	1741.75
809.16	3132.35
809.597	2936.75
810.035	5137.65
810.472	5592.15
810.91	2015.35
811.347	765.95
811.785	385.85
812.222	240.65
812.66	182.75
813.097	152.75
813.535	142.95
813.972	123.05
814.409	114.55
814.846	108.85
815.284	110.85
815.721	96.65
816.158	99.15
816.595	115.25
817.032	168.55
817.47	189.05
817.907	157.75
818.344	144.95
818.781	112.05
819.218	92.35
819.655	117.05
820.092	177.85
820.529	207.35
820.966	176.35
821.403	134.75
821.839	107.25
822.276	89.15
822.713	122.25
823.15	135.85
823.587	116.55
824.023	137.95
824.46	283.75
824.897	827.55
825.333	1295.75
825.77	557.15
826.206	214.75
826.643	135.15
827.08	98.45
827.516	79.55
827.953	79.05
828.389	79.45
828.825	73.45
829.262	67.65
829.698	57.65
830.135	65.15
830.571	61.15
831.007	61.15
831.443	64.35
831.88	60.25
832.316	58.35
832.752	66.95
833.188	61.85
833.624	62.55
834.06	62.65
834.497	68.75
834.933	67.15
835.369	75.75
835.805	72.05
836.241	76.75
836.677	72.85
837.112	85.45
837.548	103.45
837.984	131.35
838.42	183.05
838.856	459.65
839.292	1421.85
839.727	2207.15
840.163	1016.15
840.599	861.15
841.034	1910.85
841.47	2037.55
841.906	743.05
842.341	311.65
842.777	214.45
843.212	289.05
843.648	301.25
844.083	147.25
844.519	92.55
844.954	78.75
845.39	58.45
845.825	56.75
846.261	56.45
846.696	51.35
847.131	50.95
847.566	54.55
848.002	51.75
848.437	51.95
848.872	63.15
849.307	59.65
849.742	80.25
850.177	170.85
850.613	520.75
851.048	836.05
851.483	360.25
851.918	148.45
852.353	78.85
852.788	61.45
853.223	63.55
853.657	54.05
854.092	38.05
854.527	40.95
854.962	35.75
855.397	48.25
855.832	46.65
856.266	43.55
856.701	42.05
857.136	39.35
857.57	44.25
858.005	52.55
858.44	57.15
858.874	41.05
859.309	49.55
859.743	37.65
860.178	48.85
860.612	40.95
861.047	54.45
861.481	67.65
861.915	67.05
862.35	47.15
862.784	30.35
863.218	38.95
863.653	34.95
864.087	42.55
864.521	57.25
864.955	70.25
865.39	148.95
865.824	172.85
866.258	108.05
866.692	162.45
867.126	172.45
867.56	101.65
867.994	54.75
868.428	37.25
868.862	40.75
869.296	54.75
869.73	58.95
870.164	50.25
870.598	49.85
871.031	37.45
871.465	31.05
871.899	34.35
872.333	27.95
872.766	23.55
873.2	22.65
873.634	26.75
874.067	25.05
874.501	28.15
874.935	39.25
875.368	32.25
875.802	25.35
876.235	24.25
876.669	28.95
877.102	24.65
877.535	30.45
877.969	20.75
878.402	22.85
878.836	18.05
879.269	24.15
879.702	25.05
880.135	17.85
880.569	25.85
881.002	28.75
881.435	15.75
881.868	22.55
882.301	17.25
882.734	17.15
883.167	19.85
883.601	18.15
884.034	26.15
884.467	15.15
884.899	17.05
885.332	18.55
885.765	15.15
886.198	20.85
886.631	17.15
887.064	15.75
887.497	26.05
887.929	26.15
888.362	11.85
888.795	18.65
889.228	19.95
889.66	20.55
890.093	13.75
890.526	12.05
890.958	17.35
891.391	18.65
891.823	19.45
892.256	15.35
892.688	14.85
893.121	22.15
893.553	13.75
893.985	24.85
894.418	19.15
894.85	15.55
895.282	17.15
895.715	10.35
896.147	13.65
896.579	21.25
897.011	14.25
897.444	19.55
897.876	13.75
898.308	18.85
898.74	8.85
899.172	20.85
899.604	27.25
900.036	20.45
900.468	17.15
900.9	12.75
901.332	18.75
901.764	16.75
902.196	20.05
902.628	16.65
903.06	15.75
903.491	28.25
903.923	23.55
904.355	22.05
904.787	22.45
905.218	26.35
905.65	27.45
906.082	16.25
906.513	12.55
906.945	13.85
907.376	15.95
907.808	21.05
908.239	25.45
908.671	17.65
909.102	20.95
909.534	23.85
909.965	45.05
910.397	92.45
910.828	295.05
911.259	454.55
911.691	210.85
912.122	104.05
912.553	54.65
912.984	41.05
913.415	30.35
913.847	26.45
914.278	17.55
914.709	13.05
915.14	20.75
915.571	15.25
916.002	15.45
916.433	15.45
916.864	16.95
917.295	14.15
917.726	23.25
918.157	17.95
918.587	29.45
919.018	25.85
919.449	21.65
919.88	21.85
920.311	34.35
920.741	44.55
921.172	160.55
921.603	145.95
922.033	76.15
922.464	43.65
922.895	22.25
923.325	25.35
923.756	16.55
924.186	14.25
924.617	26.15
925.047	42.85
925.478	55.75
925.908	46.25
926.338	29.05
926.769	18.95
927.199	15.95
927.629	11.85
928.06	14.05
928.49	23.15
928.92	15.85
929.35	11.75
929.78	8.45
930.21	8.05
930.641	5.95
931.071	7.85
931.501	3.65
931.931	4.75
932.361	9.85
932.791	2.95
933.221	5.05
933.651	3.85
934.08	19.05
934.51	30.85
934.94	10.65
935.37	10.75
935.8	10.85
936.229	9.25
936.659	7.55
937.089	5.45
937.519	11.75
937.948	25.55
938.378	20.25
938.807	9.45
939.237	6.65
939.666	16.05
940.096	-5.75
940.525	0.75
940.955	0.55
941.384	12.65
941.814	-4.45
942.243	-0.25
942.672	0.05
943.102	-3.05
943.531	5.05
943.96	7.55
944.39	2.25
944.819	-0.15
945.248	3.05
945.677	-1.15
946.106	5.65
946.535	14.15
946.964	9.65
947.393	3.25
947.822	5.75
948.251	-5.35
948.68	5.05
949.109	5.85
949.538	2.95
949.967	-0.15
950.396	2.25
950.825	1.35
951.254	4.95
951.682	-6.55
952.111	5.15
952.54	10.15
952.969	0.25
953.397	-3.05
953.826	4.45
954.254	-5.35
954.683	2.75
955.112	0.85
955.54	-1.35
955.969	-0.35
956.397	0.05
956.826	4.35
957.254	9.35
957.682	1.55
958.111	11.75
958.539	4.35
958.967	8.05
959.396	-4.25
959.824	3.35
960.252	7.75
960.68	-1.65
961.109	-3.25
961.537	-5.15
961.965	1.35
962.393	-1.35
962.821	-2.75
963.249	2.25
963.677	4.55
964.105	10.75
964.533	39.15
964.961	37.55
965.389	21.75
965.817	6.55
966.245	5.35
966.672	-0.65
967.1	-9.65
967.528	5.95
967.956	2.65
968.383	-0.45
968.811	-1.35
969.239	-5.75
969.666	-1.55
970.094	1.55
970.522	2.15
970.949	-4.35
971.377	-8.85
971.804	1.15
972.232	-1.55
972.659	-1.65
973.087	1.95
973.514	-0.15
973.941	-5.75
974.369	6.35
974.796	8.45
975.223	3.45
975.651	-2.35
976.078	3.95
976.505	0.65
976.932	-1.45
977.359	16.55
977.786	13.45
978.214	1.65
978.641	-3.25
979.068	-0.95
979.495	-2.65
979.922	-4.35
980.349	3.85
980.776	5.05
981.202	4.15
981.629	8.25
982.056	7.05
982.483	6.15
982.91	6.15
983.337	-7.35
983.763	0.85
984.19	-5.55
984.617	-1.65
985.043	-3.95
985.47	0.35
985.897	1.15
986.323	-6.35
986.75	2.35
987.176	1.75
987.603	5.65
988.029	0.15
988.456	0.35
988.882	4.65
989.308	-1.95
989.735	1.35
990.161	8.65
990.587	-4.85
991.014	1.45
991.44	11.35
991.866	0.75
992.292	2.75
992.719	-2.35
993.145	8.65
993.571	-3.85
993.997	-2.85
994.423	-2.25
994.849	-1.45
995.275	2.95
995.701	2.45
996.127	-8.05
996.553	6.25
996.979	-3.65
997.405	-0.45
997.83	-12.45
998.256	-3.25
998.682	0.15
999.108	-5.65
999.534	1.15
999.959	-4.45
1000.385	-4.75
1000.811	-6.45
1001.236	-8.15
1001.662	-8.85
1002.087	-0.05
1002.513	3.85
1002.938	6.55
1003.364	-0.75
1003.789	-1.65
1004.215	1.25
1004.64	-3.85
1005.066	3.35
1005.491	-1.15
1005.916	0.55
1006.342	-2.75
1006.767	-3.95
1007.192	4.95
1007.617	-3.15
1008.042	2.55
1008.468	-6.15
1008.893	-1.65
1009.318	-5.45
1009.743	4.95
1010.168	6.05
1010.593	7.65
1011.018	-5.55
1011.443	-5.95
1011.868	1.95
1012.293	-3.05
1012.718	-6.45
1013.143	2.05
1013.567	8.15
1013.992	1.45
1014.417	-12.65
1014.842	-0.55
1015.267	-2.55
1015.691	-3.95
1016.116	7.05
1016.541	4.35
1016.965	7.85
1017.39	2.45
1017.814	-2.25
1018.239	-1.85
1018.663	-2.55
1019.088	-11.65
1019.512	-7.15
1019.937	-3.65
1020.361	-4.15
1020.785	-9.85
1021.21	2.15
1021.634	1.65
1022.058	4.95
1022.483	3.05
1022.907	-2.05
1023.331	-6.55
1023.755	-3.85
1024.179	-0.25
1024.604	-4.65
1025.028	-5.35
1025.452	-0.75
1025.876	-3.15
1026.3	3.85
1026.724	-11.45
1027.148	-7.15
1027.572	-10.65
1027.996	-3.65
1028.42	-0.25
1028.843	-1.05
1029.267	-1.85
1029.691	-2.75
1030.115	-6.55
1030.539	0.15
1030.962	-0.75
1031.386	-4.25
1031.81	-2.05
1032.233	2.05
1032.657	2.75
1033.08	-1.55
1033.504	-4.95
1033.927	-4.75
1034.351	-5.45
1034.774	-2.35
1035.198	6.65
1035.621	-3.75
1036.045	-5.35
1036.468	0.55
1036.891	-11.55
1037.315	-7.65
1037.738	-11.05
1038.161	3.05
1038.584	-3.55
1039.008	1.85
1039.431	0.05
1039.854	-2.65
1040.277	-7.65
1040.7	-5.85
1041.123	1.05
1041.546	-4.85
1041.969	-3.05
1042.392	-0.25
1042.815	3.55
1043.238	3.35
1043.661	-1.05
1044.084	-5.55
1044.507	-5.05
1044.93	-2.75
1045.352	-5.85
1045.775	0.65
1046.198	0.45
1046.621	-1.75
1047.043	-5.95
1047.466	1.35
1047.889	0.45
1048.311	-4.55
1048.734	2.25
1049.156	-0.95
1049.579	-1.15
1050.001	-0.75
1050.424	-2.95
1050.846	-7.05
1051.269	-2.65
1051.691	-1.15
1052.113	-2.05
1052.536	1.85
1052.958	4.25
1053.38	-10.75
1053.802	-5.15
1054.225	2.65
1054.647	-8.15
1055.069	-6.35
1055.491	3.55
1055.913	-4.85
1056.335	0.15
1056.757	-2.75
1057.179	-3.45
1057.601	-2.65
1058.023	-2.15
1058.445	-0.45
1058.867	-1.15
1059.289	-2.65
1059.711	-11.55
1060.133	2.85
1060.555	-4.25
1060.976	0.05
1061.398	-2.95
1061.82	-7.15
1062.241	0.45
1062.663	-4.35
1063.085	-3.55
1063.506	1.25
1063.928	-4.95
1064.35	-1.45
1064.771	-7.15
1065.193	2.15
1065.614	-12.25
1066.035	1.65
1066.457	-1.95
1066.878	-0.55
1067.3	-3.95
1067.721	-1.05
1068.142	-3.05
1068.564	-2.35
1068.985	1.45
1069.406	-2.35
1069.827	-3.95
1070.248	1.65
1070.67	-8.35
1071.091	-4.65
1071.512	-2.75
1071.933	-6.95
1072.354	-9.95
1072.775	-8.65
1073.196	-3.55
1073.617	2.05
1074.038	-5.35
1074.459	0.45
1074.88	-7.45
1075.3	-1.65
1075.721	-8.95
1076.142	3.75
1076.563	1.45
1076.983	-7.15
1077.404	-3.25
1077.825	-12.05
1078.246	-6.25
1078.666	-10.45
1079.087	-6.35
1079.507	-5.35
1079.928	1.35
1080.348	-1.55
1080.769	-3.15
1081.189	1.15
1081.61	3.95
1082.03	-5.35
1082.451	-4.15
1082.871	-10.25
1083.291	-1.45
1083.711	-6.55
1084.132	-7.75
1084.552	-4.45
1084.972	-2.65
1085.392	-6.05
1085.813	-7.35
1086.233	-5.45
1086.653	-4.55
1087.073	-7.55
1087.493	-6.75
1087.913	-7.55
1088.333	-2.75
1088.753	-2.25
1089.173	4.15
1089.593	-7.65
1090.013	1.25
1090.433	2.75
1090.852	-0.55
1091.272	3.75
1091.692	1.35
1092.112	1.25
1092.531	-6.05
1092.951	-6.05
1093.371	1.75
1093.79	-1.55
1094.21	0.65
1094.63	-0.85
1095.049	-3.45
1095.469	-2.25
1095.888	0.25
1096.308	5.35
1096.727	7.85
1097.146	-1.25
1097.566	-2.75
1097.985	-3.25
1098.405	0.65
1098.824	-3.75
1099.243	-10.55
1099.662	-7.85
1100.082	-3.45
1100.501	-0.85
1100.92	-2.45
1101.339	0.75
1101.758	-2.15
