Data from 20171114-ORNL-Ar_H_NY_Subt18_08-03-30-670.txt Node
Date: Tue Nov 14 08:03:30 EST 2017
User: Ender
Spectrometer: HR+D1039
Trigger mode: 0
Integration Time (sec): 2.730000E-2
Scans to average: 10
Electric dark correction enabled: true
Nonlinearity correction enabled: false
Boxcar width: 0
XAxis mode: Wavelengths
Number of Pixels in Spectrum: 2048
>>>>>Begin Spectral Data<<<<<
187.836	-2.33
188.309	-2.33
188.782	-2.33
189.255	4.67
189.728	2.27
190.201	5.27
190.674	-0.43
191.147	3.17
191.619	-7.63
192.092	4.87
192.565	2.37
193.038	-5.53
193.511	-3.43
193.984	-0.73
194.456	1.07
194.929	-1.03
195.402	-4.83
195.874	2.27
196.347	-1.23
196.82	-12.03
197.292	3.77
197.765	0.57
198.237	-0.83
198.71	4.57
199.182	0.87
199.655	-0.23
200.127	2.17
200.6	-2.23
201.072	-2.53
201.544	-4.13
202.017	2.97
202.489	5.87
202.961	-3.23
203.433	-2.43
203.906	-7.13
204.378	-7.53
204.85	-2.63
205.322	-14.43
205.794	0.67
206.266	-0.03
206.739	-7.73
207.211	3.07
207.683	-5.63
208.155	-9.73
208.627	-7.43
209.099	2.57
209.57	-5.63
210.042	-0.93
210.514	-3.83
210.986	-2.53
211.458	-7.13
211.93	1.47
212.402	3.27
212.873	-3.63
213.345	-11.53
213.817	-8.43
214.288	-3.53
214.76	-3.23
215.232	-3.63
215.703	-7.53
216.175	-4.53
216.646	-3.93
217.118	-3.63
217.589	0.07
218.061	-3.93
218.532	-4.73
219.004	1.87
219.475	1.07
219.946	-3.53
220.418	-10.03
220.889	-2.13
221.36	-5.33
221.832	-8.73
222.303	-6.93
222.774	-2.63
223.245	-6.33
223.717	-5.43
224.188	-3.83
224.659	-7.73
225.13	-5.63
225.601	-3.93
226.072	1.67
226.543	-5.83
227.014	-3.13
227.485	-7.33
227.956	-7.53
228.427	-2.43
228.898	4.77
229.369	0.67
229.839	-2.33
230.31	-6.83
230.781	2.27
231.252	-6.73
231.722	-5.73
232.193	-5.73
232.664	0.17
233.135	0.97
233.605	-6.93
234.076	-5.73
234.546	-4.73
235.017	-0.53
235.487	-4.53
235.958	-0.33
236.428	-6.13
236.899	-5.53
237.369	-1.73
237.84	-11.93
238.31	1.77
238.78	-11.13
239.251	-7.83
239.721	-9.13
240.191	-5.73
240.662	-6.23
241.132	-2.53
241.602	-7.33
242.072	-2.63
242.542	2.67
243.013	-6.83
243.483	-2.53
243.953	-2.63
244.423	-5.53
244.893	-4.93
245.363	-2.03
245.833	-2.33
246.303	-6.33
246.773	-2.73
247.243	-10.13
247.712	-4.83
248.182	-1.83
248.652	3.47
249.122	-15.93
249.592	-7.23
250.061	1.67
250.531	3.37
251.001	-9.83
251.471	1.07
251.94	3.07
252.41	-3.83
252.879	-3.83
253.349	2.17
253.818	5.47
254.288	-4.53
254.757	0.17
255.227	-4.73
255.696	-8.63
256.166	-2.83
256.635	-3.73
257.105	-1.53
257.574	-1.43
258.043	-1.33
258.513	-7.03
258.982	-1.13
259.451	-12.53
259.92	-7.53
260.389	-1.73
260.859	1.67
261.328	0.87
261.797	4.47
262.266	-8.03
262.735	1.07
263.204	0.47
263.673	-8.73
264.142	-5.03
264.611	-9.83
265.08	-8.73
265.549	-9.03
266.018	-1.13
266.487	-6.23
266.955	-11.03
267.424	-1.23
267.893	4.67
268.362	-6.93
268.83	-4.63
269.299	-1.23
269.768	-2.33
270.236	-4.93
270.705	-8.33
271.174	-5.13
271.642	-1.93
272.111	-9.13
272.579	0.67
273.048	-3.63
273.516	-5.33
273.985	-8.93
274.453	-2.13
274.922	5.37
275.39	-7.13
275.858	-7.63
276.327	-4.23
276.795	-6.63
277.263	-4.83
277.731	1.47
278.2	-5.93
278.668	-1.33
279.136	-1.73
279.604	-11.53
280.072	-3.33
280.54	-4.23
281.008	-4.33
281.477	3.37
281.945	-6.53
282.413	-3.33
282.881	-1.73
283.348	-5.13
283.816	-6.03
284.284	-7.53
284.752	4.87
285.22	-0.13
285.688	1.17
286.156	-4.13
286.623	2.07
287.091	-5.93
287.559	-4.73
288.026	-7.33
288.494	-3.93
288.962	-14.93
289.429	-6.93
289.897	0.07
290.364	-4.13
290.832	-1.83
291.3	-5.43
291.767	0.07
292.234	0.27
292.702	-5.33
293.169	-8.73
293.637	-0.73
294.104	-0.13
294.571	-5.23
295.039	-4.73
295.506	-10.93
295.973	-3.83
296.44	-3.03
296.908	-2.83
297.375	-3.33
297.842	-5.93
298.309	-7.33
298.776	-8.93
299.243	-2.03
299.71	-9.73
300.177	-1.93
300.644	2.07
301.111	-7.13
301.578	-5.43
302.045	-5.43
302.512	-0.93
302.979	2.57
303.446	-6.03
303.913	-5.83
304.379	-5.83
304.846	-3.63
305.313	-4.23
305.78	-2.33
306.246	-6.43
306.713	-4.33
307.18	-1.13
307.646	-4.33
308.113	-0.83
308.579	-3.83
309.046	-3.03
309.512	-4.03
309.979	-10.33
310.445	-6.03
310.912	-4.53
311.378	2.27
311.845	-5.33
312.311	-1.73
312.777	-1.13
313.244	-0.43
313.71	5.77
314.176	-0.83
314.642	-10.23
315.109	-12.03
315.575	-0.23
316.041	7.07
316.507	-8.03
316.973	1.87
317.439	-6.43
317.905	1.47
318.371	1.17
318.837	1.17
319.303	-3.43
319.769	-1.83
320.235	-2.13
320.701	-8.43
321.167	-1.13
321.633	-8.23
322.099	-4.93
322.564	1.37
323.03	1.57
323.496	-3.63
323.962	0.67
324.427	-1.23
324.893	-0.23
325.359	-1.13
325.824	0.27
326.29	-4.23
326.755	-8.83
327.221	-7.63
327.686	-10.83
328.152	-1.63
328.617	-1.53
329.083	0.87
329.548	3.17
330.014	8.57
330.479	-9.63
330.944	-0.73
331.41	-4.83
331.875	-0.53
332.34	-3.13
332.805	-9.13
333.271	-0.03
333.736	-9.63
334.201	-0.43
334.666	0.77
335.131	-4.63
335.596	-3.53
336.061	-6.93
336.526	-10.83
336.991	-3.73
337.456	5.97
337.921	-0.73
338.386	-9.93
338.851	0.57
339.316	4.27
339.781	2.97
340.246	5.27
340.711	-3.73
341.175	-5.43
341.64	-10.43
342.105	-1.53
342.569	-1.43
343.034	3.47
343.499	-2.93
343.963	-6.63
344.428	3.87
344.893	-3.63
345.357	0.77
345.822	0.67
346.286	-4.33
346.751	-7.73
347.215	-7.23
347.679	-13.93
348.144	0.87
348.608	-0.63
349.073	-1.63
349.537	-6.83
350.001	-0.63
350.465	5.07
350.93	-5.33
351.394	1.17
351.858	-5.23
352.322	0.37
352.786	-1.93
353.25	-1.73
353.715	5.47
354.179	1.17
354.643	6.07
355.107	-5.33
355.571	-0.63
356.035	-2.53
356.498	-0.03
356.962	-6.43
357.426	2.97
357.89	-0.03
358.354	-1.23
358.818	-4.53
359.281	-2.43
359.745	-4.73
360.209	-2.43
360.673	-2.33
361.136	-5.03
361.6	5.27
362.064	0.07
362.527	8.27
362.991	9.47
363.454	4.77
363.918	-8.63
364.381	-8.63
364.845	-4.33
365.308	4.37
365.772	-0.03
366.235	0.87
366.698	-4.43
367.162	-4.23
367.625	-3.43
368.088	-3.13
368.552	0.67
369.015	-5.73
369.478	-5.13
369.941	-3.73
370.404	-3.63
370.867	-6.13
371.331	-7.63
371.794	-6.13
372.257	-6.53
372.72	-0.83
373.183	5.47
373.646	-3.23
374.109	-0.63
374.572	2.77
375.035	-5.93
375.497	-6.13
375.96	1.27
376.423	-8.53
376.886	0.57
377.349	2.77
377.811	-1.53
378.274	-2.53
378.737	-1.53
379.199	2.37
379.662	-5.63
380.125	-4.93
380.587	-8.63
381.05	-6.63
381.512	-2.13
381.975	12.67
382.437	0.37
382.9	-3.43
383.362	-2.23
383.825	-3.13
384.287	1.27
384.75	-9.63
385.212	-4.63
385.674	2.77
386.136	0.07
386.599	-3.63
387.061	1.47
387.523	-4.63
387.985	-2.33
388.447	5.57
388.91	2.97
389.372	1.37
389.834	-2.33
390.296	4.57
390.758	-1.03
391.22	-2.63
391.682	4.07
392.144	1.97
392.606	4.97
393.068	0.07
393.529	6.97
393.991	-7.13
394.453	1.37
394.915	3.17
395.377	-2.33
395.838	2.27
396.3	0.27
396.762	5.07
397.224	1.37
397.685	6.37
398.147	-1.53
398.608	-6.83
399.07	-4.23
399.531	1.47
399.993	-1.83
400.454	1.27
400.916	-0.33
401.377	-2.73
401.839	2.37
402.3	-7.93
402.762	0.47
403.223	-0.13
403.684	1.97
404.145	0.17
404.607	0.67
405.068	1.57
405.529	-2.53
405.99	-0.63
406.451	-13.33
406.913	1.37
407.374	-1.83
407.835	-0.43
408.296	-5.63
408.757	3.47
409.218	-0.53
409.679	1.47
410.14	3.17
410.601	2.67
411.062	3.67
411.522	1.67
411.983	-5.03
412.444	-4.93
412.905	4.97
413.366	-4.83
413.826	-2.03
414.287	4.47
414.748	3.87
415.208	8.37
415.669	0.97
416.13	9.87
416.59	3.97
417.051	7.17
417.511	3.17
417.972	4.87
418.432	0.47
418.893	11.47
419.353	9.07
419.814	5.47
420.274	1.27
420.734	-5.73
421.195	-0.73
421.655	-2.43
422.115	-2.63
422.576	2.67
423.036	8.37
423.496	8.37
423.956	3.37
424.416	0.27
424.876	7.27
425.336	6.47
425.797	10.77
426.257	8.77
426.717	-5.03
427.177	12.57
427.637	-2.23
428.097	0.27
428.556	0.77
429.016	2.47
429.476	0.17
429.936	4.07
430.396	1.27
430.856	1.17
431.315	8.87
431.775	0.57
432.235	7.37
432.694	2.27
433.154	10.07
433.614	7.97
434.073	-0.13
434.533	5.37
434.993	-1.33
435.452	4.37
435.912	1.87
436.371	4.47
436.83	-3.03
437.29	4.37
437.749	5.57
438.209	0.97
438.668	5.77
439.127	0.27
439.587	4.17
440.046	-5.13
440.505	-1.83
440.964	-0.53
441.424	0.27
441.883	6.37
442.342	5.67
442.801	-2.83
443.26	3.87
443.719	7.67
444.178	5.27
444.637	-7.53
445.096	4.37
445.555	-0.63
446.014	7.27
446.473	13.87
446.932	5.77
447.391	0.47
447.849	-1.53
448.308	-1.83
448.767	-5.43
449.226	6.17
449.685	5.67
450.143	10.77
450.602	-0.93
451.061	2.37
451.519	3.67
451.978	3.27
452.436	1.47
452.895	-5.03
453.353	4.07
453.812	3.47
454.27	8.47
454.729	10.77
455.187	-0.23
455.646	6.27
456.104	4.17
456.562	-3.33
457.021	3.17
457.479	6.67
457.937	4.07
458.395	3.87
458.854	-1.73
459.312	4.77
459.77	-5.13
460.228	-3.73
460.686	-2.33
461.144	3.17
461.602	5.17
462.06	-2.63
462.518	3.77
462.976	4.77
463.434	7.17
463.892	2.87
464.35	2.37
464.808	9.17
465.266	-2.73
465.724	3.47
466.181	-1.03
466.639	5.57
467.097	8.07
467.555	5.77
468.012	6.17
468.47	2.47
468.928	11.07
469.385	12.67
469.843	9.37
470.3	5.47
470.758	7.47
471.215	1.97
471.673	4.17
472.13	5.27
472.588	11.57
473.045	2.87
473.503	4.27
473.96	4.97
474.417	0.57
474.875	2.27
475.332	6.57
475.789	10.87
476.246	7.27
476.704	3.67
477.161	9.97
477.618	5.47
478.075	2.17
478.532	12.37
478.989	10.47
479.446	5.17
479.903	17.27
480.36	14.17
480.817	4.37
481.274	14.47
481.731	11.57
482.188	4.57
482.645	10.97
483.102	11.77
483.558	6.07
484.015	11.77
484.472	13.67
484.929	11.37
485.385	12.37
485.842	14.37
486.299	5.67
486.755	15.37
487.212	5.17
487.668	3.17
488.125	7.27
488.582	6.27
489.038	12.27
489.494	0.97
489.951	11.37
490.407	7.67
490.864	7.37
491.32	11.27
491.776	12.67
492.233	4.37
492.689	-5.83
493.145	3.47
493.602	5.27
494.058	7.27
494.514	10.37
494.97	12.47
495.426	10.37
495.882	7.77
496.338	4.27
496.794	11.67
497.251	4.87
497.707	11.87
498.163	4.27
498.618	13.97
499.074	8.07
499.53	8.27
499.986	5.27
500.442	3.27
500.898	7.47
501.354	1.57
501.809	13.27
502.265	9.27
502.721	8.67
503.177	14.37
503.632	16.87
504.088	10.47
504.543	18.57
504.999	8.97
505.455	2.47
505.91	7.47
506.366	4.37
506.821	-0.33
507.277	5.97
507.732	3.27
508.187	8.67
508.643	7.17
509.098	3.17
509.553	20.87
510.009	13.37
510.464	11.47
510.919	17.07
511.375	9.27
511.83	9.77
512.285	8.37
512.74	17.27
513.195	16.07
513.65	15.17
514.105	12.57
514.56	13.47
515.015	14.47
515.47	12.57
515.925	9.37
516.38	12.47
516.835	16.07
517.29	16.07
517.745	9.57
518.2	14.27
518.655	12.17
519.109	12.57
519.564	14.37
520.019	-0.53
520.474	6.47
520.928	9.17
521.383	14.67
521.838	14.77
522.292	16.97
522.747	16.87
523.201	15.27
523.656	15.97
524.11	9.77
524.565	11.87
525.019	6.37
525.474	11.17
525.928	17.47
526.382	5.67
526.837	6.67
527.291	8.17
527.745	7.57
528.2	8.47
528.654	12.27
529.108	6.37
529.562	7.97
530.016	1.87
530.47	7.17
530.925	10.07
531.379	2.77
531.833	8.17
532.287	8.17
532.741	9.27
533.195	6.67
533.649	10.87
534.103	7.97
534.556	-0.03
535.01	5.67
535.464	2.67
535.918	15.17
536.372	9.67
536.826	12.77
537.279	9.97
537.733	6.17
538.187	10.37
538.64	8.67
539.094	13.07
539.548	4.27
540.001	7.27
540.455	8.57
540.908	13.87
541.362	8.27
541.815	12.97
542.269	9.77
542.722	7.87
543.175	1.47
543.629	7.07
544.082	15.77
544.536	9.77
544.989	6.57
545.442	11.87
545.895	10.17
546.349	10.07
546.802	12.77
547.255	13.57
547.708	9.07
548.161	10.77
548.614	11.27
549.067	17.07
549.52	9.77
549.973	11.97
550.426	10.77
550.879	4.07
551.332	8.37
551.785	13.07
552.238	5.67
552.691	9.97
553.144	12.17
553.596	8.77
554.049	11.77
554.502	19.77
554.955	15.97
555.407	8.47
555.86	15.57
556.313	15.27
556.765	6.17
557.218	15.27
557.67	11.07
558.123	12.07
558.576	11.17
559.028	12.97
559.48	11.77
559.933	13.07
560.385	10.87
560.838	13.67
561.29	11.87
561.742	9.27
562.195	3.27
562.647	6.57
563.099	13.07
563.551	13.07
564.004	15.97
564.456	10.17
564.908	10.07
565.36	6.37
565.812	8.37
566.264	7.87
566.716	12.47
567.168	9.27
567.62	6.67
568.072	7.07
568.524	4.97
568.976	6.37
569.428	0.97
569.88	2.97
570.332	10.27
570.784	3.27
571.235	2.17
571.687	2.47
572.139	8.27
572.59	8.07
573.042	10.87
573.494	2.47
573.945	5.07
574.397	6.27
574.849	6.57
575.3	9.57
575.752	7.87
576.203	13.47
576.655	8.57
577.106	8.47
577.557	6.57
578.009	10.77
578.46	1.97
578.912	8.27
579.363	6.87
579.814	4.67
580.265	-4.73
580.717	-2.13
581.168	0.07
581.619	9.47
582.07	6.57
582.521	9.37
582.972	-0.73
583.423	4.07
583.875	1.17
584.326	6.37
584.777	8.57
585.227	10.97
585.678	4.07
586.129	3.57
586.58	14.97
587.031	7.17
587.482	14.87
587.933	14.67
588.384	13.87
588.834	4.97
589.285	6.17
589.736	4.07
590.186	9.07
590.637	16.27
591.088	1.07
591.538	8.87
591.989	10.97
592.439	21.07
592.89	8.67
593.34	6.97
593.791	5.17
594.241	6.37
594.692	14.57
595.142	-0.43
595.593	8.77
596.043	5.17
596.493	6.57
596.943	8.07
597.394	12.87
597.844	0.97
598.294	2.87
598.744	13.67
599.195	10.37
599.645	18.27
600.095	11.67
600.545	18.87
600.995	10.27
601.445	20.07
601.895	17.87
602.345	30.67
602.795	17.87
603.245	15.17
603.695	14.67
604.145	6.27
604.594	10.47
605.044	7.47
605.494	6.07
605.944	-0.43
606.393	7.87
606.843	6.47
607.293	7.47
607.743	4.77
608.192	6.07
608.642	10.97
609.091	9.97
609.541	12.47
609.99	5.97
610.44	11.17
610.889	3.17
611.339	-0.33
611.788	-1.33
612.238	1.77
612.687	16.67
613.136	3.57
613.586	12.87
614.035	0.67
614.484	0.57
614.933	2.67
615.383	6.67
615.832	9.67
616.281	8.77
616.73	13.77
617.179	6.27
617.628	7.57
618.077	2.97
618.526	3.47
618.975	6.27
619.424	7.77
619.873	2.67
620.322	12.37
620.771	2.47
621.22	7.57
621.669	11.37
622.118	0.87
622.567	2.87
623.015	3.07
623.464	4.37
623.913	-2.13
624.361	5.17
624.81	1.77
625.259	0.37
625.707	9.57
626.156	2.67
626.604	7.87
627.053	-3.33
627.501	4.17
627.95	2.17
628.398	2.67
628.847	-2.73
629.295	-3.93
629.744	2.57
630.192	9.87
630.64	10.57
631.089	-1.03
631.537	2.67
631.985	5.17
632.433	6.47
632.881	3.77
633.33	6.17
633.778	0.37
634.226	-8.23
634.674	-0.33
635.122	-2.13
635.57	5.17
636.018	9.17
636.466	12.37
636.914	5.07
637.362	6.47
637.81	9.37
638.258	12.57
638.705	5.97
639.153	5.97
639.601	2.87
640.049	1.27
640.497	-2.73
640.944	12.37
641.392	-5.13
641.84	6.07
642.287	-1.23
642.735	-7.83
643.182	1.87
643.63	0.57
644.078	-3.23
644.525	10.87
644.973	4.27
645.42	-0.03
645.867	4.07
646.315	7.47
646.762	1.67
647.21	3.87
647.657	-6.83
648.104	5.37
648.551	3.57
648.999	0.47
649.446	4.47
649.893	-0.13
650.34	4.57
650.787	1.97
651.234	9.27
651.682	2.27
652.129	-3.63
652.576	-3.83
653.023	8.27
653.47	11.67
653.917	3.07
654.363	12.67
654.81	12.37
655.257	4.77
655.704	3.07
656.151	5.47
656.598	1.57
657.044	0.07
657.491	2.07
657.938	0.27
658.385	-0.83
658.831	3.47
659.278	12.27
659.724	-0.63
660.171	4.27
660.618	1.97
661.064	10.67
661.511	0.37
661.957	1.67
662.404	4.17
662.85	9.87
663.296	2.77
663.743	3.77
664.189	3.17
664.635	4.37
665.082	7.57
665.528	6.07
665.974	-5.63
666.42	6.47
666.867	6.27
667.313	3.27
667.759	7.17
668.205	4.57
668.651	-0.83
669.097	6.27
669.543	2.37
669.989	-1.53
670.435	5.17
670.881	1.17
671.327	-1.83
671.773	6.37
672.219	-4.13
672.665	13.57
673.11	-1.03
673.556	17.17
674.002	12.67
674.448	5.67
674.893	6.97
675.339	1.27
675.785	-2.03
676.23	18.07
676.676	1.87
677.122	-0.43
677.567	-1.83
678.013	5.87
678.458	-0.23
678.904	2.17
679.349	-4.73
679.794	1.87
680.24	1.17
680.685	1.47
681.131	-1.13
681.576	1.37
682.021	6.07
682.466	-2.13
682.912	2.77
683.357	-4.73
683.802	2.57
684.247	0.57
684.692	3.27
685.137	4.37
685.583	8.87
686.028	2.57
686.473	7.87
686.918	-1.53
687.363	-1.33
687.807	9.77
688.252	-0.33
688.697	11.27
689.142	5.77
689.587	0.47
690.032	-6.33
690.477	3.57
690.921	-5.33
691.366	5.17
691.811	-1.83
692.255	8.47
692.7	9.27
693.145	8.27
693.589	14.97
694.034	27.77
694.478	43.67
694.923	58.47
695.367	74.47
695.812	35.37
696.256	9.17
696.701	-0.23
697.145	2.47
697.59	1.97
698.034	1.27
698.478	6.47
698.922	1.27
699.367	3.97
699.811	10.27
700.255	7.47
700.699	6.57
701.143	3.17
701.588	7.27
702.032	13.17
702.476	-2.83
702.92	5.67
703.364	6.17
703.808	12.07
704.252	22.67
704.696	36.87
705.14	52.37
705.584	69.77
706.027	29.57
706.471	6.57
706.915	-2.13
707.359	0.67
707.803	-1.33
708.246	-2.13
708.69	7.97
709.134	9.27
709.577	1.67
710.021	13.37
710.465	8.17
710.908	2.87
711.352	-3.53
711.795	-0.13
712.239	6.67
712.682	-4.73
713.126	6.27
713.569	12.27
714.012	7.07
714.456	3.27
714.899	-3.93
715.342	-6.63
715.786	-5.53
716.229	-6.43
716.672	1.97
717.115	0.27
717.558	3.27
718.002	-0.33
718.445	6.27
718.888	6.67
719.331	-0.03
719.774	1.27
720.217	2.77
720.66	-0.93
721.103	0.17
721.546	-2.03
721.989	1.97
722.432	-8.33
722.874	2.17
723.317	-4.43
723.76	-2.83
724.203	3.07
724.645	5.67
725.088	7.87
725.531	8.07
725.974	7.57
726.416	10.87
726.859	-1.03
727.301	-1.13
727.744	1.17
728.187	-1.73
728.629	3.67
729.071	-1.43
729.514	0.77
729.956	-1.53
730.399	-2.63
730.841	-1.43
731.283	0.67
731.726	-0.23
732.168	-4.83
732.61	0.97
733.053	7.77
733.495	1.47
733.937	-4.73
734.379	9.37
734.821	3.07
735.263	8.17
735.705	16.17
736.148	40.67
736.59	76.67
737.032	91.17
737.474	79.57
737.916	13.47
738.357	8.37
738.799	6.17
739.241	2.47
739.683	-4.93
740.125	-2.03
740.567	-8.33
741.008	2.37
741.45	7.77
741.892	5.37
742.334	10.17
742.775	0.47
743.217	6.97
743.658	-1.23
744.1	4.57
744.542	-6.33
744.983	4.67
745.425	-1.03
745.866	6.07
746.307	6.77
746.749	0.47
747.19	2.47
747.632	7.57
748.073	12.67
748.514	56.47
748.956	94.87
749.397	113.97
749.838	99.97
750.279	102.77
750.72	42.37
751.162	12.27
751.603	-1.03
752.044	-1.43
752.485	-10.93
752.926	-0.13
753.367	0.27
753.808	4.67
754.249	0.07
754.69	-1.53
755.131	-0.63
755.572	-4.63
756.013	-0.73
756.453	-1.83
756.894	-3.53
757.335	-1.93
757.776	4.17
758.216	-0.63
758.657	-3.23
759.098	-7.53
759.538	-4.83
759.979	-4.23
760.42	-4.03
760.86	7.47
761.301	45.97
761.741	123.17
762.182	200.07
762.622	127.97
763.063	25.87
763.503	7.07
763.943	-0.23
764.384	1.07
764.824	-0.03
765.264	-4.63
765.705	-4.23
766.145	-7.63
766.585	-3.03
767.025	-7.73
767.465	-6.23
767.906	5.27
768.346	1.67
768.786	-2.33
769.226	-5.33
769.666	8.27
770.106	8.97
770.546	44.07
770.986	95.07
771.426	76.77
771.866	19.27
772.306	4.97
772.745	-3.13
773.185	-3.33
773.625	5.97
774.065	-4.33
774.505	1.97
774.944	1.07
775.384	-3.13
775.824	6.57
776.263	7.07
776.703	-0.03
777.142	-5.53
777.582	-8.83
778.021	-4.23
778.461	0.87
778.9	3.47
779.34	4.37
779.779	-0.63
780.219	-11.13
780.658	-7.43
781.097	-5.83
781.537	-0.33
781.976	-3.63
782.415	-7.03
782.855	-7.03
783.294	-6.43
783.733	-0.63
784.172	-3.03
784.611	-12.13
785.05	-2.63
785.489	0.17
785.928	-0.03
786.367	3.07
786.806	-6.43
787.245	-1.93
787.684	-4.33
788.123	2.67
788.562	-3.73
789.001	-5.73
789.44	-0.43
789.879	-4.63
790.317	-10.63
790.756	-4.43
791.195	-1.63
791.634	-0.43
792.072	2.17
792.511	-2.43
792.95	26.07
793.388	69.67
793.827	59.27
794.265	14.07
794.704	-2.63
795.142	7.17
795.581	4.17
796.019	2.77
796.458	1.07
796.896	-5.03
797.334	-0.93
797.773	0.87
798.211	5.97
798.649	15.27
799.087	30.57
799.526	43.17
799.964	67.77
800.402	76.87
800.84	19.67
801.278	0.77
801.716	-1.13
802.154	-0.93
802.592	3.87
803.03	-0.33
803.468	-4.13
803.906	-6.13
804.344	-0.23
804.782	-2.83
805.22	-7.93
805.658	-5.53
806.096	5.77
806.533	-2.13
806.971	-0.73
807.409	2.57
807.847	-2.33
808.284	13.27
808.722	49.87
809.16	103.37
809.597	85.67
810.035	155.07
810.472	172.97
810.91	53.07
811.347	20.87
811.785	10.47
812.222	1.67
812.66	0.77
813.097	2.17
813.535	-2.53
813.972	-2.33
814.409	-2.53
814.846	-4.23
815.284	2.57
815.721	-5.43
816.158	1.47
816.595	-2.43
817.032	-4.03
817.47	-2.13
817.907	5.77
818.344	-6.73
818.781	-2.43
819.218	-6.43
819.655	-1.93
820.092	2.07
820.529	-4.13
820.966	-2.93
821.403	-5.63
821.839	4.97
822.276	-0.83
822.713	4.47
823.15	-5.33
823.587	-2.53
824.023	-1.73
824.46	-1.03
824.897	26.27
825.333	44.37
825.77	14.77
826.206	-0.53
826.643	6.37
827.08	1.17
827.516	-1.23
827.953	-2.93
828.389	6.27
828.825	-3.03
829.262	-3.23
829.698	-4.13
830.135	-5.03
830.571	-1.23
831.007	-0.43
831.443	-3.63
831.88	-7.33
832.316	-6.83
832.752	-5.43
833.188	-2.33
833.624	-7.03
834.06	-5.03
834.497	-5.33
834.933	-4.43
835.369	0.87
835.805	-10.13
836.241	-3.83
836.677	-1.43
837.112	-3.83
837.548	-1.73
837.984	-0.53
838.42	-9.43
838.856	12.77
839.292	45.07
839.727	81.37
840.163	29.57
840.599	24.47
841.034	64.47
841.47	67.47
841.906	17.47
842.341	2.47
842.777	2.17
843.212	-3.43
843.648	1.07
844.083	2.27
844.519	0.97
844.954	-0.53
845.39	-3.13
845.825	-3.23
846.261	0.67
846.696	-7.63
847.131	-4.53
847.566	4.17
848.002	-1.43
848.437	-4.03
848.872	-1.63
849.307	0.27
849.742	-4.43
850.177	2.77
850.613	19.87
851.048	25.27
851.483	6.67
851.918	-1.73
852.353	-7.33
852.788	-11.63
853.223	-2.83
853.657	4.57
854.092	5.27
854.527	-2.43
854.962	-5.53
855.397	-3.13
855.832	7.77
856.266	3.77
856.701	0.57
857.136	-0.63
857.57	-2.03
858.005	-6.53
858.44	0.37
858.874	-3.73
859.309	5.17
859.743	-7.63
860.178	1.97
860.612	-5.73
861.047	1.37
861.481	-5.93
861.915	-5.43
862.35	-1.53
862.784	-1.73
863.218	0.77
863.653	-3.63
864.087	2.57
864.521	-1.43
864.955	-6.83
865.39	0.17
865.824	5.47
866.258	-0.73
866.692	2.57
867.126	-1.33
867.56	-2.43
867.994	-4.73
868.428	-3.93
868.862	-2.43
869.296	-4.33
869.73	6.67
870.164	-6.03
870.598	-0.43
871.031	-5.53
871.465	-2.73
871.899	-0.53
872.333	-4.23
872.766	-1.03
873.2	2.07
873.634	-0.03
874.067	-3.13
874.501	-6.63
874.935	-5.83
875.368	-6.03
875.802	-5.43
876.235	-7.73
876.669	-1.13
877.102	-2.83
877.535	5.07
877.969	-4.73
878.402	-2.63
878.836	-6.83
879.269	0.17
879.702	-5.03
880.135	-1.33
880.569	-6.63
881.002	5.37
881.435	1.27
881.868	-8.53
882.301	-2.53
882.734	-8.63
883.167	2.47
883.601	-7.23
884.034	1.17
884.467	-9.43
884.899	-0.23
885.332	-6.13
885.765	-10.13
886.198	-6.33
886.631	-1.63
887.064	-3.03
887.497	2.47
887.929	5.77
888.362	-9.43
888.795	-9.43
889.228	-5.43
889.66	-6.33
890.093	-0.63
890.526	-3.03
890.958	-6.33
891.391	0.67
891.823	0.37
892.256	-5.63
892.688	-6.73
893.121	-6.83
893.553	-1.53
893.985	0.77
894.418	-3.93
894.85	-7.73
895.282	-2.23
895.715	3.57
896.147	-4.53
896.579	1.17
897.011	-0.53
897.444	-5.93
897.876	0.57
898.308	-4.83
898.74	0.97
899.172	-5.73
899.604	5.17
900.036	4.37
900.468	-2.23
900.9	-1.73
901.332	-1.63
901.764	-9.23
902.196	-3.93
902.628	-2.73
903.06	-9.63
903.491	-1.13
903.923	-9.33
904.355	-2.13
904.787	-6.53
905.218	-7.13
905.65	-4.43
906.082	-3.73
906.513	-10.03
906.945	-9.43
907.376	-13.23
907.808	-6.83
908.239	-3.13
908.671	-3.93
909.102	-6.73
909.534	0.27
909.965	0.97
910.397	-0.23
910.828	7.97
911.259	17.67
911.691	2.87
912.122	1.37
912.553	-5.23
912.984	6.07
913.415	2.37
913.847	7.27
914.278	-2.33
914.709	-9.63
915.14	1.07
915.571	2.47
916.002	-2.83
916.433	5.47
916.864	2.77
917.295	-3.23
917.726	1.77
918.157	-0.33
918.587	2.07
919.018	-4.93
919.449	-2.93
919.88	5.07
920.311	-2.93
920.741	-8.63
921.172	-4.33
921.603	-0.83
922.033	-1.83
922.464	4.47
922.895	-3.83
923.325	4.07
923.756	-0.93
924.186	-5.33
924.617	2.37
925.047	-8.73
925.478	-12.53
925.908	-0.63
926.338	-5.03
926.769	-2.43
927.199	6.67
927.629	-4.83
928.06	-1.13
928.49	-1.53
928.92	-5.23
929.35	-0.33
929.78	-2.43
930.21	-4.23
930.641	-4.03
931.071	-2.63
931.501	-5.33
931.931	0.87
932.361	-2.03
932.791	-3.13
933.221	-1.93
933.651	-8.93
934.08	-6.03
934.51	4.97
934.94	-7.43
935.37	-2.33
935.8	0.07
936.229	-2.23
936.659	3.07
937.089	-7.33
937.519	-2.73
937.948	2.47
938.378	1.07
938.807	-0.43
939.237	-5.03
939.666	-3.03
940.096	-16.43
940.525	-4.73
940.955	0.57
941.384	-2.43
941.814	-12.03
942.243	-3.03
942.672	1.97
943.102	-4.43
943.531	2.87
943.96	-3.93
944.39	-3.03
944.819	0.27
945.248	-2.23
945.677	-1.63
946.106	3.37
946.535	1.37
946.964	-0.33
947.393	-1.53
947.822	-5.13
948.251	-6.73
948.68	-4.03
949.109	-2.73
949.538	2.47
949.967	-4.33
950.396	-1.23
950.825	-2.83
951.254	-3.63
951.682	-9.33
952.111	5.97
952.54	-0.83
952.969	-10.23
953.397	-10.43
953.826	4.57
954.254	-8.03
954.683	4.37
955.112	-3.33
955.54	-11.03
955.969	-1.03
956.397	-0.93
956.826	-11.33
957.254	-2.13
957.682	-3.93
958.111	1.47
958.539	0.87
958.967	-4.03
959.396	-6.73
959.824	-5.83
960.252	-2.23
960.68	-12.83
961.109	-6.93
961.537	-6.53
961.965	-7.63
962.393	-6.33
962.821	-6.03
963.249	1.07
963.677	-1.93
964.105	-3.43
964.533	-0.93
964.961	3.27
965.389	-3.83
965.817	-7.03
966.245	-3.43
966.672	-7.33
967.1	-9.23
967.528	-3.03
967.956	-6.03
968.383	-6.83
968.811	-2.83
969.239	-8.83
969.666	-7.13
970.094	-2.53
970.522	0.57
970.949	-4.83
971.377	-9.13
971.804	-4.23
972.232	-6.73
972.659	-3.93
973.087	-7.33
973.514	-4.73
973.941	-8.53
974.369	4.17
974.796	-1.23
975.223	-1.23
975.651	-5.63
976.078	-0.03
976.505	-5.73
976.932	-4.73
977.359	-5.93
977.786	1.47
978.214	-6.53
978.641	-11.93
979.068	-8.13
979.495	-5.13
979.922	-0.93
980.349	-2.43
980.776	-3.63
981.202	-0.93
981.629	3.67
982.056	-3.13
982.483	-7.23
982.91	1.87
983.337	-7.13
983.763	-1.13
984.19	-0.73
984.617	-6.63
985.043	-6.63
985.47	-2.73
985.897	-10.43
986.323	-7.33
986.75	-7.03
987.176	-2.23
987.603	-2.53
988.029	0.87
988.456	-4.73
988.882	2.47
989.308	-11.83
989.735	-8.43
990.161	-1.03
990.587	-3.63
991.014	-4.93
991.44	4.37
991.866	-3.03
992.292	-6.63
992.719	-7.23
993.145	4.07
993.571	-6.03
993.997	-5.63
994.423	-3.23
994.849	-5.63
995.275	1.37
995.701	-0.73
996.127	-10.73
996.553	4.17
996.979	-7.43
997.405	-3.73
997.83	-5.93
998.256	-6.83
998.682	-2.43
999.108	-5.63
999.534	-5.03
999.959	-6.13
1000.385	-1.13
1000.811	-2.83
1001.236	-10.83
1001.662	-8.03
1002.087	-7.03
1002.513	-3.43
1002.938	0.27
1003.364	-1.93
1003.789	-1.13
1004.215	3.77
1004.64	-2.23
1005.066	6.07
1005.491	-4.33
1005.916	-4.53
1006.342	-10.03
1006.767	-13.13
1007.192	1.77
1007.617	-4.43
1008.042	-9.53
1008.468	-12.93
1008.893	-2.23
1009.318	-11.63
1009.743	-3.13
1010.168	-2.63
1010.593	-6.33
1011.018	-12.93
1011.443	-6.23
1011.868	-3.53
1012.293	-6.03
1012.718	-8.33
1013.143	1.87
1013.567	-2.53
1013.992	-5.03
1014.417	-8.13
1014.842	7.47
1015.267	-11.13
1015.691	6.27
1016.116	6.77
1016.541	-3.23
1016.965	-2.43
1017.39	5.57
1017.814	-5.83
1018.239	1.17
1018.663	-8.63
1019.088	-8.23
1019.512	-1.43
1019.937	-0.33
1020.361	-4.63
1020.785	-12.63
1021.21	-6.33
1021.634	-7.13
1022.058	1.77
1022.483	0.17
1022.907	-4.63
1023.331	-9.73
1023.755	-8.63
1024.179	3.57
1024.604	-6.73
1025.028	-6.03
1025.452	-2.53
1025.876	-0.93
1026.3	-8.23
1026.724	-6.83
1027.148	-3.63
1027.572	-5.03
1027.996	-4.43
1028.42	-4.53
1028.843	-8.13
1029.267	-9.43
1029.691	1.17
1030.115	-5.53
1030.539	-5.13
1030.962	-6.53
1031.386	-8.43
1031.81	3.47
1032.233	0.77
1032.657	-0.23
1033.08	-8.03
1033.504	-1.93
1033.927	-0.13
1034.351	2.87
1034.774	-10.23
1035.198	-2.23
1035.621	-4.43
1036.045	-8.83
1036.468	-0.63
1036.891	-12.83
1037.315	-4.83
1037.738	-6.83
1038.161	1.87
1038.584	-2.33
1039.008	-7.63
1039.431	-2.93
1039.854	3.77
1040.277	-15.13
1040.7	-12.23
1041.123	-3.93
1041.546	-6.03
1041.969	-1.13
1042.392	-1.13
1042.815	-0.83
1043.238	-2.03
1043.661	1.27
1044.084	-3.73
1044.507	-4.23
1044.93	-2.43
1045.352	-3.53
1045.775	-1.93
1046.198	-2.73
1046.621	1.47
1047.043	-5.03
1047.466	6.07
1047.889	-4.53
1048.311	-7.03
1048.734	0.97
1049.156	-0.23
1049.579	-2.83
1050.001	-6.43
1050.424	0.17
1050.846	-4.03
1051.269	-5.53
1051.691	-5.83
1052.113	-10.13
1052.536	-4.43
1052.958	-4.23
1053.38	-1.53
1053.802	-10.83
1054.225	-1.63
1054.647	-7.23
1055.069	-4.43
1055.491	5.67
1055.913	-11.73
1056.335	4.27
1056.757	-5.63
1057.179	-4.53
1057.601	-8.13
1058.023	-0.93
1058.445	-0.93
1058.867	-2.63
1059.289	-7.83
1059.711	-7.23
1060.133	0.07
1060.555	-4.83
1060.976	-7.13
1061.398	-7.83
1061.82	-4.93
1062.241	-4.53
1062.663	-3.73
1063.085	-2.33
1063.506	0.67
1063.928	2.27
1064.35	-1.33
1064.771	-6.73
1065.193	0.17
1065.614	-8.63
1066.035	-3.53
1066.457	-1.33
1066.878	-5.93
1067.3	-8.03
1067.721	-0.93
1068.142	0.97
1068.564	-2.93
1068.985	-0.43
1069.406	-1.33
1069.827	-7.93
1070.248	-2.13
1070.67	-6.13
1071.091	-3.83
1071.512	-4.23
1071.933	-6.43
1072.354	-3.13
1072.775	-4.93
1073.196	-0.83
1073.617	1.07
1074.038	1.57
1074.459	-3.23
1074.88	-9.63
1075.3	0.07
1075.721	-9.73
1076.142	3.37
1076.563	-6.43
1076.983	-7.03
1077.404	-9.83
1077.825	-8.63
1078.246	-1.83
1078.666	-8.13
1079.087	0.47
1079.507	-6.13
1079.928	6.97
1080.348	-6.13
1080.769	-5.93
1081.189	2.57
1081.61	-1.43
1082.03	-8.73
1082.451	-5.83
1082.871	-3.53
1083.291	-8.23
1083.711	-1.23
1084.132	-9.53
1084.552	1.97
1084.972	1.67
1085.392	-0.93
1085.813	-11.93
1086.233	-1.43
1086.653	1.77
1087.073	-5.23
1087.493	-6.93
1087.913	-7.53
1088.333	-9.03
1088.753	-8.23
1089.173	7.47
1089.593	-1.73
1090.013	-7.93
1090.433	4.57
1090.852	-3.13
1091.272	-2.63
1091.692	-2.13
1092.112	-1.33
1092.531	-9.13
1092.951	-8.73
1093.371	-2.63
1093.79	8.77
1094.21	-5.93
1094.63	-4.73
1095.049	-3.43
1095.469	-1.63
1095.888	-2.93
1096.308	0.27
1096.727	9.27
1097.146	-3.53
1097.566	3.37
1097.985	0.27
1098.405	-1.43
1098.824	-2.33
1099.243	-5.73
1099.662	-8.83
1100.082	-5.83
1100.501	-0.13
1100.92	-10.43
1101.339	0.07
1101.758	-6.53
