Data from 20171114-ORNL-Ar_H_NY_Subt18_08-06-23-464.txt Node
Date: Tue Nov 14 08:06:23 EST 2017
User: Ender
Spectrometer: HR+D1039
Trigger mode: 0
Integration Time (sec): 2.730000E-2
Scans to average: 10
Electric dark correction enabled: true
Nonlinearity correction enabled: false
Boxcar width: 0
XAxis mode: Wavelengths
Number of Pixels in Spectrum: 2048
>>>>>Begin Spectral Data<<<<<
187.836	6.24
188.309	6.24
188.782	6.24
189.255	0.34
189.728	-1.96
190.201	8.94
190.674	-0.56
191.147	2.84
191.619	-8.66
192.092	-2.86
192.565	5.94
193.038	-3.96
193.511	1.94
193.984	-1.56
194.456	-5.16
194.929	2.04
195.402	1.64
195.874	-5.16
196.347	-5.66
196.82	-5.06
197.292	4.44
197.765	0.54
198.237	-8.36
198.71	3.74
199.182	-2.16
199.655	3.74
200.127	3.54
200.6	-4.46
201.072	-2.56
201.544	-6.66
202.017	-5.46
202.489	2.54
202.961	2.24
203.433	-4.66
203.906	-7.66
204.378	-9.36
204.85	-4.46
205.322	-5.76
205.794	-2.76
206.266	-0.36
206.739	-6.36
207.211	1.74
207.683	-8.76
208.155	-4.56
208.627	-3.66
209.099	-5.06
209.57	-6.56
210.042	-6.26
210.514	-1.96
210.986	-0.06
211.458	-13.46
211.93	-1.86
212.402	-1.56
212.873	-6.16
213.345	-12.06
213.817	-12.46
214.288	-7.06
214.76	-13.36
215.232	-6.46
215.703	-4.26
216.175	-3.96
216.646	-2.86
217.118	-6.96
217.589	-8.66
218.061	-3.06
218.532	-7.66
219.004	-2.26
219.475	-3.16
219.946	-5.46
220.418	-8.06
220.889	1.04
221.36	-2.56
221.832	-3.96
222.303	-7.56
222.774	-4.26
223.245	-7.76
223.717	-14.76
224.188	-8.66
224.659	-3.96
225.13	-5.36
225.601	-7.16
226.072	1.44
226.543	-1.46
227.014	-2.86
227.485	1.94
227.956	-7.96
228.427	-4.86
228.898	-2.86
229.369	3.74
229.839	-5.06
230.31	-2.66
230.781	2.84
231.252	-5.66
231.722	-4.76
232.193	-2.56
232.664	1.04
233.135	0.94
233.605	-3.26
234.076	-3.96
234.546	0.74
235.017	4.44
235.487	-0.86
235.958	-2.06
236.428	-8.76
236.899	-0.16
237.369	2.44
237.84	-4.56
238.31	5.64
238.78	-1.26
239.251	-1.56
239.721	-0.86
240.191	1.14
240.662	-3.76
241.132	0.14
241.602	-6.16
242.072	-1.86
242.542	9.04
243.013	-1.76
243.483	8.04
243.953	1.14
244.423	-1.46
244.893	-4.96
245.363	7.74
245.833	2.44
246.303	2.84
246.773	4.84
247.243	0.94
247.712	5.24
248.182	7.64
248.652	4.74
249.122	1.94
249.592	8.34
250.061	18.24
250.531	29.64
251.001	13.14
251.471	16.14
251.94	18.44
252.41	9.44
252.879	-2.76
253.349	8.04
253.818	7.94
254.288	3.44
254.757	4.04
255.227	-1.66
255.696	-0.06
256.166	6.04
256.635	8.74
257.105	6.44
257.574	3.74
258.043	7.94
258.513	15.14
258.982	14.94
259.451	6.54
259.92	6.14
260.389	13.34
260.859	17.64
261.328	10.24
261.797	11.34
262.266	13.74
262.735	8.94
263.204	7.64
263.673	3.34
264.142	7.34
264.611	-2.96
265.08	1.84
265.549	-1.76
266.018	2.14
266.487	1.24
266.955	-9.56
267.424	5.24
267.893	1.54
268.362	5.04
268.83	-0.56
269.299	7.24
269.768	6.94
270.236	3.14
270.705	8.84
271.174	9.04
271.642	7.54
272.111	6.64
272.579	20.74
273.048	19.44
273.516	28.84
273.985	36.04
274.453	19.24
274.922	20.34
275.39	12.34
275.858	1.34
276.327	12.74
276.795	14.14
277.263	6.34
277.731	28.64
278.2	57.94
278.668	54.34
279.136	48.04
279.604	17.44
280.072	16.44
280.54	10.54
281.008	9.64
281.477	13.74
281.945	14.34
282.413	15.24
282.881	17.34
283.348	7.94
283.816	9.74
284.284	17.14
284.752	14.44
285.22	9.54
285.688	10.34
286.156	18.04
286.623	43.34
287.091	53.44
287.559	26.84
288.026	19.54
288.494	15.24
288.962	5.84
289.429	11.44
289.897	16.64
290.364	16.34
290.832	18.04
291.3	14.44
291.767	17.74
292.234	18.64
292.702	9.54
293.169	17.54
293.637	21.74
294.104	16.34
294.571	11.14
295.039	14.94
295.506	20.64
295.973	22.24
296.44	13.84
296.908	18.64
297.375	12.04
297.842	23.24
298.309	19.24
298.776	14.14
299.243	21.14
299.71	15.94
300.177	24.74
300.644	23.34
301.111	25.64
301.578	23.74
302.045	18.44
302.512	25.04
302.979	18.14
303.446	22.24
303.913	20.74
304.379	18.14
304.846	20.84
305.313	35.54
305.78	24.04
306.246	31.44
306.713	27.74
307.18	25.44
307.646	21.94
308.113	32.14
308.579	26.44
309.046	19.34
309.512	22.54
309.979	18.64
310.445	23.64
310.912	28.74
311.378	33.14
311.845	32.84
312.311	31.34
312.777	29.34
313.244	27.04
313.71	37.84
314.176	25.24
314.642	27.64
315.109	33.94
315.575	39.34
316.041	34.94
316.507	38.64
316.973	36.84
317.439	35.44
317.905	38.24
318.371	30.24
318.837	29.84
319.303	32.14
319.769	34.14
320.235	33.94
320.701	37.64
321.167	34.44
321.633	36.64
322.099	42.34
322.564	46.14
323.03	42.44
323.496	38.04
323.962	39.84
324.427	33.24
324.893	42.54
325.359	38.94
325.824	42.64
326.29	39.04
326.755	40.74
327.221	44.14
327.686	44.14
328.152	51.54
328.617	42.84
329.083	48.34
329.548	47.14
330.014	50.24
330.479	41.44
330.944	42.94
331.41	43.54
331.875	42.64
332.34	44.14
332.805	43.04
333.271	43.74
333.736	46.04
334.201	54.64
334.666	49.14
335.131	53.74
335.596	54.34
336.061	50.44
336.526	49.14
336.991	46.64
337.456	50.34
337.921	49.64
338.386	47.64
338.851	42.84
339.316	43.34
339.781	48.54
340.246	49.14
340.711	48.14
341.175	50.24
341.64	44.74
342.105	56.44
342.569	59.84
343.034	57.24
343.499	67.24
343.963	53.04
344.428	58.34
344.893	60.24
345.357	57.54
345.822	57.74
346.286	68.34
346.751	75.24
347.215	70.04
347.679	70.54
348.144	98.04
348.608	82.44
349.073	77.84
349.537	78.94
350.001	84.74
350.465	88.04
350.93	88.34
351.394	76.54
351.858	79.04
352.322	89.44
352.786	81.04
353.25	101.44
353.715	105.54
354.179	107.24
354.643	125.94
355.107	137.14
355.571	111.24
356.035	106.04
356.498	122.14
356.962	118.94
357.426	136.34
357.89	112.84
358.354	82.24
358.818	85.64
359.281	82.64
359.745	79.64
360.209	76.74
360.673	74.04
361.136	80.24
361.6	91.54
362.064	85.44
362.527	86.34
362.991	86.84
363.454	80.24
363.918	72.64
364.381	76.74
364.845	84.84
365.308	83.84
365.772	90.04
366.235	85.74
366.698	86.94
367.162	86.74
367.625	83.94
368.088	85.54
368.552	83.04
369.015	86.64
369.478	100.04
369.941	97.84
370.404	85.54
370.867	114.04
371.331	110.64
371.794	115.14
372.257	110.44
372.72	112.04
373.183	108.74
373.646	106.04
374.109	104.44
374.572	106.44
375.035	115.74
375.497	111.84
375.96	113.04
376.423	107.84
376.886	118.64
377.349	114.04
377.811	93.94
378.274	106.04
378.737	103.64
379.199	114.34
379.662	109.54
380.125	116.94
380.587	114.04
381.05	124.24
381.512	134.84
381.975	136.24
382.437	127.84
382.9	128.74
383.362	133.54
383.825	143.84
384.287	153.14
384.75	134.44
385.212	141.44
385.674	135.44
386.136	135.34
386.599	128.54
387.061	130.14
387.523	136.24
387.985	137.84
388.447	147.94
388.91	139.94
389.372	163.24
389.834	150.04
390.296	146.34
390.758	161.54
391.22	171.94
391.682	216.74
392.144	297.74
392.606	231.94
393.068	162.24
393.529	171.04
393.991	158.04
394.453	153.74
394.915	167.14
395.377	190.24
395.838	222.14
396.3	161.14
396.762	149.24
397.224	130.94
397.685	132.54
398.147	128.04
398.608	133.44
399.07	135.94
399.531	136.04
399.993	139.34
400.454	150.64
400.916	152.44
401.377	147.54
401.839	155.44
402.3	159.64
402.762	175.64
403.223	177.94
403.684	170.04
404.145	163.04
404.607	161.04
405.068	174.44
405.529	174.14
405.99	195.04
406.451	175.54
406.913	181.14
407.374	170.54
407.835	163.14
408.296	170.24
408.757	172.34
409.218	185.84
409.679	185.54
410.14	176.14
410.601	180.54
411.062	186.64
411.522	185.64
411.983	191.04
412.444	179.14
412.905	174.34
413.366	180.74
413.826	191.94
414.287	219.64
414.748	257.64
415.208	248.84
415.669	214.74
416.13	204.84
416.59	204.74
417.051	218.04
417.511	224.04
417.972	245.14
418.432	252.14
418.893	287.14
419.353	252.04
419.814	204.64
420.274	185.24
420.734	182.84
421.195	200.84
421.655	199.74
422.115	201.14
422.576	203.94
423.036	202.34
423.496	207.94
423.956	221.04
424.416	229.94
424.876	270.64
425.336	263.44
425.797	268.44
426.257	261.74
426.717	247.44
427.177	232.14
427.637	232.74
428.097	234.94
428.556	250.94
429.016	274.34
429.476	267.04
429.936	278.44
430.396	282.14
430.856	298.54
431.315	329.04
431.775	354.84
432.235	383.54
432.694	364.84
433.154	372.74
433.614	398.14
434.073	352.14
434.533	292.24
434.993	277.04
435.452	282.04
435.912	297.24
436.371	296.44
436.83	288.24
437.29	273.64
437.749	250.04
438.209	246.94
438.668	275.74
439.127	288.44
439.587	268.54
440.046	260.24
440.505	265.84
440.964	281.74
441.424	329.24
441.883	316.94
442.342	271.14
442.801	225.54
443.26	227.54
443.719	221.64
444.178	226.04
444.637	211.74
445.096	224.24
445.555	222.64
446.014	219.04
446.473	225.54
446.932	235.04
447.391	230.14
447.849	228.14
448.308	220.64
448.767	227.14
449.226	239.34
449.685	243.54
450.143	248.24
450.602	242.74
451.061	238.94
451.519	244.04
451.978	240.54
452.436	242.34
452.895	243.24
453.353	261.54
453.812	245.24
454.27	243.84
454.729	238.74
455.187	249.84
455.646	247.24
456.104	250.04
456.562	275.14
457.021	269.84
457.479	265.34
457.937	282.34
458.395	268.74
458.854	253.04
459.312	258.64
459.77	281.84
460.228	256.14
460.686	251.04
461.144	248.24
461.602	249.94
462.06	242.44
462.518	253.64
462.976	262.04
463.434	259.44
463.892	268.54
464.35	278.24
464.808	291.44
465.266	265.24
465.724	276.14
466.181	276.74
466.639	274.14
467.097	291.24
467.555	302.64
468.012	314.24
468.47	315.34
468.928	332.64
469.385	351.24
469.843	355.24
470.3	357.44
470.758	370.14
471.215	398.04
471.673	423.74
472.13	422.64
472.588	415.84
473.045	386.74
473.503	385.64
473.96	402.24
474.417	415.34
474.875	443.34
475.332	488.94
475.789	473.64
476.246	480.14
476.704	498.94
477.161	513.54
477.618	536.74
478.075	576.74
478.532	615.44
478.989	703.24
479.446	833.94
479.903	791.64
480.36	826.14
480.817	886.94
481.274	989.84
481.731	1095.84
482.188	1202.04
482.645	1321.54
483.102	1436.34
483.558	1572.14
484.015	1628.74
484.472	1608.14
484.929	1549.64
485.385	1507.24
485.842	1462.94
486.299	1392.54
486.755	1319.34
487.212	1121.64
487.668	948.84
488.125	868.64
488.582	794.24
489.038	757.44
489.494	725.84
489.951	702.34
490.407	688.14
490.864	665.14
491.32	656.44
491.776	645.14
492.233	663.24
492.689	637.84
493.145	622.64
493.602	606.24
494.058	615.94
494.514	630.14
494.97	652.84
495.426	658.24
495.882	642.54
496.338	616.74
496.794	639.64
497.251	636.94
497.707	654.74
498.163	648.84
498.618	662.04
499.074	659.24
499.53	687.24
499.986	699.44
500.442	666.54
500.898	640.54
501.354	639.44
501.809	655.34
502.265	659.74
502.721	677.84
503.177	683.24
503.632	684.94
504.088	686.84
504.543	721.94
504.999	729.24
505.455	665.94
505.91	649.24
506.366	643.94
506.821	643.04
507.277	632.64
507.732	648.94
508.187	637.84
508.643	640.94
509.098	643.44
509.553	672.74
510.009	673.44
510.464	685.04
510.919	708.44
511.375	707.54
511.83	716.74
512.285	736.54
512.74	781.94
513.195	809.24
513.65	786.94
514.105	787.44
514.56	788.44
515.015	810.74
515.47	825.44
515.925	808.84
516.38	806.54
516.835	810.24
517.29	800.84
517.745	788.24
518.2	786.04
518.655	767.14
519.109	745.84
519.564	758.64
520.019	747.94
520.474	747.94
520.928	743.64
521.383	727.44
521.838	716.04
522.292	717.94
522.747	725.14
523.201	719.64
523.656	713.84
524.11	714.24
524.565	714.84
525.019	709.54
525.474	725.14
525.928	717.84
526.382	712.34
526.837	710.44
527.291	711.64
527.745	710.04
528.2	719.84
528.654	714.34
529.108	699.94
529.562	706.54
530.016	699.94
530.47	696.74
530.925	706.24
531.379	718.54
531.833	725.94
532.287	733.24
532.741	714.04
533.195	730.04
533.649	726.44
534.103	740.84
534.556	730.44
535.01	734.04
535.464	730.34
535.918	733.84
536.372	732.84
536.826	740.14
537.279	721.44
537.733	740.54
538.187	718.94
538.64	733.54
539.094	741.44
539.548	738.64
540.001	741.94
540.455	738.04
540.908	740.94
541.362	751.34
541.815	756.24
542.269	770.14
542.722	773.54
543.175	785.44
543.629	786.94
544.082	803.44
544.536	802.64
544.989	806.14
545.442	816.14
545.895	807.04
546.349	800.04
546.802	804.44
547.255	810.54
547.708	822.44
548.161	832.04
548.614	836.44
549.067	839.94
549.52	835.14
549.973	834.44
550.426	828.14
550.879	808.14
551.332	816.74
551.785	818.04
552.238	825.84
552.691	840.74
553.144	848.74
553.596	871.64
554.049	878.74
554.502	909.64
554.955	921.64
555.407	930.14
555.86	918.84
556.313	921.64
556.765	903.14
557.218	905.74
557.67	908.24
558.123	898.34
558.576	901.64
559.028	900.74
559.48	900.24
559.933	878.24
560.385	860.04
560.838	838.54
561.29	802.24
561.742	796.14
562.195	769.94
562.647	787.64
563.099	786.94
563.551	787.64
564.004	791.24
564.456	786.34
564.908	783.94
565.36	764.44
565.812	749.04
566.264	738.74
566.716	741.94
567.168	727.64
567.62	727.14
568.072	713.04
568.524	709.94
568.976	695.24
569.428	677.24
569.88	691.84
570.332	691.04
570.784	696.04
571.235	699.34
571.687	709.44
572.139	710.74
572.59	722.24
573.042	722.74
573.494	725.04
573.945	716.64
574.397	704.54
574.849	711.94
575.3	711.24
575.752	694.24
576.203	692.14
576.655	700.54
577.106	686.04
577.557	675.54
578.009	679.64
578.46	680.94
578.912	680.54
579.363	681.44
579.814	685.64
580.265	676.44
580.717	681.44
581.168	682.34
581.619	689.94
582.07	702.84
582.521	686.44
582.972	684.74
583.423	683.74
583.875	696.54
584.326	716.84
584.777	766.64
585.227	842.14
585.678	931.74
586.129	1020.74
586.58	1093.34
587.031	1179.84
587.482	1338.04
587.933	1525.24
588.384	1327.24
588.834	985.74
589.285	817.94
589.736	799.54
590.186	789.54
590.637	780.54
591.088	766.04
591.538	758.94
591.989	745.04
592.439	748.74
592.89	735.74
593.34	723.04
593.791	719.34
594.241	716.34
594.692	722.44
595.142	723.54
595.593	719.14
596.043	723.64
596.493	733.64
596.943	732.54
597.394	736.34
597.844	725.44
598.294	746.74
598.744	769.14
599.195	788.84
599.645	829.04
600.095	869.94
600.545	932.44
600.995	982.34
601.445	1046.84
601.895	1110.24
602.345	1154.24
602.795	1124.04
603.245	1094.34
603.695	1036.04
604.145	985.04
604.594	927.44
605.044	866.94
605.494	810.84
605.944	762.94
606.393	760.54
606.843	747.44
607.293	747.14
607.743	737.04
608.192	754.64
608.642	775.54
609.091	787.74
609.541	772.84
609.99	788.14
610.44	787.64
610.889	737.84
611.339	721.74
611.788	698.64
612.238	719.14
612.687	739.54
613.136	734.74
613.586	748.44
614.035	746.24
614.484	773.94
614.933	763.64
615.383	762.64
615.832	758.04
616.281	738.44
616.73	699.74
617.179	679.54
617.628	669.84
618.077	650.44
618.526	639.84
618.975	614.64
619.424	624.44
619.873	622.14
620.322	632.44
620.771	618.74
621.22	614.54
621.669	606.74
622.118	587.44
622.567	590.74
623.015	582.44
623.464	579.94
623.913	567.74
624.361	563.54
624.81	555.54
625.259	563.94
625.707	565.54
626.156	567.94
626.604	581.74
627.053	576.74
627.501	575.54
627.95	590.64
628.398	592.94
628.847	587.14
629.295	574.54
629.744	585.34
630.192	575.04
630.64	577.14
631.089	571.74
631.537	581.04
631.985	599.74
632.433	615.24
632.881	622.34
633.33	664.34
633.778	640.74
634.226	568.74
634.674	580.84
635.122	592.64
635.57	609.04
636.018	648.24
636.466	586.64
636.914	567.74
637.362	584.84
637.81	578.24
638.258	584.44
638.705	581.34
639.153	613.74
639.601	621.84
640.049	654.04
640.497	678.14
640.944	693.64
641.392	645.14
641.84	623.44
642.287	595.34
642.735	579.64
643.182	585.34
643.63	576.24
644.078	571.94
644.525	602.44
644.973	604.74
645.42	624.44
645.867	629.34
646.315	650.84
646.762	673.44
647.21	702.54
647.657	722.34
648.104	765.34
648.551	778.24
648.999	851.54
649.446	932.44
649.893	1022.14
650.34	1182.34
650.787	1411.84
651.234	1742.04
651.682	2289.24
652.129	3152.54
652.576	4542.24
653.023	6653.94
653.47	9172.54
653.917	11435.24
654.363	13213.14
654.81	14592.34
655.257	13871.94
655.704	9100.84
656.151	5380.24
656.598	3474.94
657.044	2461.44
657.491	1895.04
657.938	1508.64
658.385	1268.54
658.831	1090.94
659.278	971.54
659.724	869.74
660.171	798.44
660.618	737.94
661.064	697.74
661.511	685.04
661.957	661.64
662.404	651.44
662.85	662.14
663.296	641.64
663.743	565.34
664.189	548.14
664.635	533.24
665.082	539.94
665.528	537.14
665.974	523.24
666.42	525.94
666.867	507.94
667.313	494.94
667.759	488.54
668.205	481.34
668.651	495.54
669.097	487.54
669.543	512.34
669.989	479.04
670.435	452.04
670.881	447.44
671.327	457.34
671.773	471.14
672.219	493.14
672.665	555.34
673.11	582.44
673.556	634.34
674.002	668.54
674.448	652.64
674.893	557.34
675.339	485.24
675.785	445.44
676.23	419.54
676.676	395.74
677.122	381.04
677.567	368.94
678.013	375.34
678.458	365.54
678.904	364.14
679.349	354.64
679.794	362.94
680.24	358.74
680.685	352.94
681.131	350.34
681.576	363.24
682.021	359.54
682.466	339.44
682.912	353.24
683.357	354.14
683.802	383.44
684.247	414.64
684.692	458.14
685.137	504.24
685.583	540.04
686.028	569.14
686.473	515.74
686.918	451.44
687.363	421.44
687.807	398.64
688.252	359.94
688.697	363.94
689.142	337.44
689.587	335.24
690.032	324.54
690.477	347.64
690.921	359.54
691.366	385.04
691.811	409.54
692.255	428.14
692.7	466.24
693.145	508.74
693.589	697.04
694.034	1124.04
694.478	1543.04
694.923	1745.44
695.367	2277.54
695.812	1198.64
696.256	499.64
696.701	371.04
697.145	341.54
697.59	328.34
698.034	328.44
698.478	334.74
698.922	328.44
699.367	329.74
699.811	342.94
700.255	362.24
700.699	383.84
701.143	426.84
701.588	477.94
702.032	513.24
702.476	515.84
702.92	489.34
703.364	495.14
703.808	638.74
704.252	1038.64
704.696	1464.54
705.14	1688.84
705.584	2144.94
706.027	1056.54
706.471	517.94
706.915	394.24
707.359	355.84
707.803	316.54
708.246	309.34
708.69	317.64
709.134	318.14
709.577	313.84
710.021	315.04
710.465	305.94
710.908	300.64
711.352	300.24
711.795	307.94
712.239	354.84
712.682	387.64
713.126	420.94
713.569	467.84
714.012	378.14
714.456	328.74
714.899	294.94
715.342	275.44
715.786	260.44
716.229	264.44
716.672	255.34
717.115	247.44
717.558	245.84
718.002	252.14
718.445	265.34
718.888	293.94
719.331	294.14
719.774	304.74
720.217	305.04
720.66	287.04
721.103	268.74
721.546	261.34
721.989	256.74
722.432	237.34
722.874	242.44
723.317	230.84
723.76	236.14
724.203	258.24
724.645	320.24
725.088	447.54
725.531	575.54
725.974	639.94
726.416	545.54
726.859	311.04
727.301	247.24
727.744	241.14
728.187	236.54
728.629	236.34
729.071	248.34
729.514	254.34
729.956	270.04
730.399	286.54
730.841	285.84
731.283	267.24
731.726	267.24
732.168	262.04
732.61	261.84
733.053	292.94
733.495	315.44
733.937	356.24
734.379	394.94
734.821	432.64
735.263	541.64
735.705	838.04
736.148	1570.54
736.59	2586.24
737.032	3075.54
737.474	2487.44
737.916	812.14
738.357	424.14
738.799	329.74
739.241	300.54
739.683	284.64
740.125	295.14
740.567	301.44
741.008	315.64
741.45	311.44
741.892	318.94
742.334	353.74
742.775	356.54
743.217	343.94
743.658	265.54
744.1	259.74
744.542	256.44
744.983	312.74
745.425	343.64
745.866	344.44
746.307	291.14
746.749	289.44
747.19	316.34
747.632	457.44
748.073	874.24
748.514	1849.54
748.956	2852.94
749.397	3572.34
749.838	2972.44
750.279	2978.44
750.72	1483.54
751.162	537.74
751.603	324.94
752.044	249.04
752.485	211.94
752.926	204.24
753.367	198.24
753.808	198.44
754.249	186.94
754.69	187.64
755.131	182.84
755.572	183.04
756.013	171.94
756.453	185.24
756.894	179.74
757.335	196.94
757.776	199.54
758.216	195.34
758.657	196.34
759.098	203.04
759.538	223.24
759.979	264.64
760.42	368.24
760.86	698.54
761.301	1825.34
761.741	4420.74
762.182	6443.04
762.622	4524.64
763.063	1302.04
763.503	542.04
763.943	338.24
764.384	342.24
764.824	411.34
765.264	447.04
765.705	309.14
766.145	207.84
766.585	188.04
767.025	183.34
767.465	186.34
767.906	246.84
768.346	321.34
768.786	354.14
769.226	263.04
769.666	321.64
770.106	618.34
770.546	1543.84
770.986	2659.64
771.426	2377.14
771.866	785.34
772.306	330.14
772.745	208.94
773.185	173.94
773.625	173.64
774.065	164.54
774.505	201.94
774.944	300.04
775.384	670.74
775.824	1220.54
776.263	1177.84
776.703	504.84
777.142	214.44
777.582	160.14
778.021	143.94
778.461	149.14
778.9	144.74
779.34	135.24
779.779	118.34
780.219	103.34
780.658	104.24
781.097	104.64
781.537	116.14
781.976	112.74
782.415	106.04
782.855	102.54
783.294	106.94
783.733	109.64
784.172	110.94
784.611	105.44
785.05	107.74
785.489	118.54
785.928	120.24
786.367	119.04
786.806	117.04
787.245	125.94
787.684	137.84
788.123	148.94
788.562	131.24
789.001	123.74
789.44	122.04
789.879	118.54
790.317	117.84
790.756	128.64
791.195	131.04
791.634	146.24
792.072	203.74
792.511	364.44
792.95	998.64
793.388	2154.34
793.827	1951.84
794.265	680.14
794.704	279.14
795.142	175.04
795.581	150.74
796.019	136.74
796.458	126.14
796.896	118.94
797.334	125.74
797.773	159.34
798.211	217.24
798.649	437.74
799.087	1013.94
799.526	1590.04
799.964	2008.34
800.402	2014.84
800.84	759.64
801.278	300.24
801.716	182.24
802.154	157.64
802.592	143.44
803.03	140.54
803.468	138.74
803.906	144.84
804.344	149.54
804.782	138.84
805.22	130.94
805.658	129.64
806.096	147.54
806.533	158.74
806.971	177.44
807.409	214.94
807.847	312.24
808.284	656.54
808.722	1855.34
809.16	3303.64
809.597	3104.14
810.035	5401.44
810.472	5792.84
810.91	2076.94
811.347	788.14
811.785	394.84
812.222	249.74
812.66	196.14
813.097	158.24
813.535	141.74
813.972	131.14
814.409	117.44
814.846	109.84
815.284	104.34
815.721	105.94
816.158	101.94
816.595	123.04
817.032	180.94
817.47	202.24
817.907	172.74
818.344	155.44
818.781	121.44
819.218	98.44
819.655	125.44
820.092	190.94
820.529	218.14
820.966	181.54
821.403	123.84
821.839	110.64
822.276	96.44
822.713	124.44
823.15	129.74
823.587	117.24
824.023	143.44
824.46	304.14
824.897	889.84
825.333	1345.44
825.77	579.64
826.206	237.04
826.643	131.24
827.08	98.94
827.516	81.74
827.953	81.04
828.389	80.44
828.825	72.44
829.262	64.84
829.698	63.34
830.135	62.34
830.571	60.54
831.007	60.14
831.443	68.64
831.88	61.14
832.316	61.44
832.752	65.94
833.188	60.54
833.624	60.54
834.06	67.74
834.497	68.14
834.933	68.34
835.369	72.54
835.805	67.34
836.241	75.54
836.677	79.34
837.112	92.34
837.548	106.54
837.984	132.04
838.42	207.14
838.856	493.84
839.292	1520.94
839.727	2305.14
840.163	1070.14
840.599	914.64
841.034	2006.04
841.47	2131.14
841.906	761.24
842.341	336.34
842.777	227.14
843.212	314.04
843.648	305.24
844.083	152.44
844.519	93.14
844.954	72.34
845.39	60.24
845.825	64.94
846.261	67.44
846.696	48.14
847.131	52.54
847.566	55.44
848.002	51.84
848.437	52.44
848.872	57.84
849.307	60.94
849.742	78.84
850.177	181.94
850.613	550.84
851.048	876.54
851.483	374.74
851.918	154.14
852.353	85.94
852.788	66.14
853.223	56.64
853.657	52.24
854.092	50.74
854.527	40.04
854.962	42.64
855.397	44.34
855.832	50.64
856.266	36.94
856.701	38.64
857.136	40.34
857.57	42.94
858.005	51.24
858.44	55.64
858.874	43.84
859.309	54.14
859.743	37.64
860.178	47.34
860.612	36.84
861.047	45.54
861.481	68.34
861.915	66.64
862.35	48.64
862.784	33.44
863.218	39.94
863.653	31.24
864.087	45.64
864.521	52.54
864.955	70.74
865.39	156.54
865.824	175.84
866.258	117.94
866.692	166.84
867.126	177.34
867.56	101.34
867.994	52.64
868.428	39.24
868.862	46.64
869.296	54.54
869.73	59.74
870.164	56.34
870.598	43.84
871.031	36.54
871.465	32.04
871.899	31.84
872.333	27.44
872.766	22.74
873.2	24.24
873.634	36.74
874.067	26.14
874.501	26.54
874.935	32.54
875.368	27.84
875.802	32.54
876.235	23.84
876.669	22.84
877.102	23.74
877.535	29.84
877.969	22.44
878.402	27.74
878.836	20.04
879.269	25.04
879.702	22.54
880.135	22.04
880.569	24.94
881.002	28.74
881.435	23.04
881.868	10.64
882.301	19.34
882.734	19.14
883.167	23.14
883.601	18.14
884.034	24.34
884.467	14.54
884.899	11.84
885.332	17.64
885.765	15.44
886.198	8.74
886.631	12.54
887.064	15.74
887.497	22.24
887.929	28.84
888.362	14.54
888.795	10.84
889.228	14.74
889.66	21.04
890.093	15.04
890.526	14.64
890.958	19.74
891.391	14.64
891.823	24.54
892.256	12.74
892.688	13.04
893.121	16.64
893.553	14.04
893.985	22.34
894.418	17.84
894.85	12.54
895.282	16.14
895.715	18.04
896.147	13.44
896.579	19.44
897.011	13.44
897.444	17.74
897.876	11.24
898.308	22.34
898.74	16.54
899.172	12.94
899.604	24.74
900.036	16.64
900.468	16.44
900.9	12.04
901.332	15.64
901.764	14.84
902.196	19.34
902.628	17.44
903.06	15.14
903.491	28.04
903.923	23.94
904.355	21.24
904.787	23.44
905.218	26.54
905.65	21.14
906.082	8.24
906.513	9.24
906.945	13.54
907.376	18.54
907.808	21.44
908.239	23.44
908.671	19.14
909.102	15.94
909.534	24.24
909.965	48.74
910.397	92.64
910.828	317.04
911.259	469.24
911.691	216.44
912.122	107.54
912.553	54.74
912.984	37.14
913.415	25.54
913.847	21.94
914.278	18.74
914.709	9.44
915.14	15.84
915.571	15.84
916.002	17.14
916.433	21.64
916.864	16.04
917.295	16.74
917.726	25.44
918.157	14.04
918.587	25.04
919.018	21.04
919.449	23.14
919.88	24.04
920.311	25.14
920.741	52.94
921.172	164.34
921.603	154.54
922.033	69.04
922.464	45.14
922.895	19.54
923.325	15.14
923.756	16.94
924.186	18.34
924.617	27.94
925.047	37.04
925.478	52.34
925.908	41.84
926.338	24.54
926.769	18.74
927.199	15.64
927.629	13.24
928.06	17.64
928.49	14.64
928.92	14.14
929.35	17.54
929.78	12.34
930.21	5.34
930.641	9.94
931.071	6.24
931.501	9.04
931.931	5.44
932.361	10.44
932.791	-1.86
933.221	8.54
933.651	4.94
934.08	14.24
934.51	31.14
934.94	12.44
935.37	10.74
935.8	6.34
936.229	2.84
936.659	6.34
937.089	0.64
937.519	12.34
937.948	24.34
938.378	13.14
938.807	5.64
939.237	6.54
939.666	8.94
940.096	-5.76
940.525	8.44
940.955	7.04
941.384	7.04
941.814	-8.36
942.243	-7.06
942.672	-4.66
943.102	-2.06
943.531	-4.06
943.96	2.44
944.39	1.24
944.819	3.24
945.248	-1.06
945.677	0.44
946.106	5.44
946.535	7.14
946.964	1.04
947.393	5.94
947.822	6.04
948.251	-3.96
948.68	8.24
949.109	7.74
949.538	11.24
949.967	-0.26
950.396	0.04
950.825	0.84
951.254	7.44
951.682	-4.66
952.111	2.84
952.54	10.84
952.969	0.04
953.397	-0.86
953.826	1.54
954.254	-2.76
954.683	4.04
955.112	-1.26
955.54	-3.86
955.969	-1.76
956.397	4.34
956.826	-6.16
957.254	3.64
957.682	-3.46
958.111	6.84
958.539	-7.56
958.967	-3.16
959.396	-1.26
959.824	-2.66
960.252	4.74
960.68	-5.96
961.109	2.24
961.537	-4.36
961.965	-0.26
962.393	1.34
962.821	-4.26
963.249	1.84
963.677	-0.86
964.105	3.24
964.533	47.64
964.961	46.54
965.389	23.84
965.817	6.34
966.245	4.14
966.672	-5.96
967.1	-2.46
967.528	-3.86
967.956	-4.36
968.383	1.64
968.811	-4.36
969.239	-6.06
969.666	-8.46
970.094	-0.46
970.522	-4.06
970.949	-4.06
971.377	0.34
971.804	0.14
972.232	-4.96
972.659	-3.66
973.087	-6.66
973.514	-1.26
973.941	-2.16
974.369	4.84
974.796	-0.96
975.223	-2.26
975.651	1.34
976.078	0.84
976.505	1.14
976.932	4.54
977.359	12.74
977.786	12.24
978.214	-0.76
978.641	-2.86
979.068	-1.66
979.495	-7.26
979.922	-2.46
980.349	0.94
980.776	5.44
981.202	-2.36
981.629	4.14
982.056	9.64
982.483	-0.26
982.91	-0.26
983.337	-9.06
983.763	3.74
984.19	-8.96
984.617	-5.66
985.043	-1.76
985.47	-2.46
985.897	-6.76
986.323	-9.16
986.75	7.94
987.176	-0.46
987.603	-6.46
988.029	-4.46
988.456	-5.66
988.882	1.64
989.308	-10.66
989.735	-2.56
990.161	5.14
990.587	-6.26
991.014	-0.76
991.44	8.54
991.866	-5.76
992.292	-1.76
992.719	-5.46
993.145	4.54
993.571	-10.66
993.997	-5.16
994.423	-2.56
994.849	-7.16
995.275	-0.06
995.701	0.34
996.127	-0.66
996.553	5.14
996.979	-2.96
997.405	-7.16
997.83	-5.76
998.256	-6.76
998.682	-5.76
999.108	-8.56
999.534	-6.16
999.959	-5.86
1000.385	-6.96
1000.811	-0.86
1001.236	-8.66
1001.662	-11.86
1002.087	-9.26
1002.513	-0.56
1002.938	-1.46
1003.364	2.94
1003.789	-1.56
1004.215	6.44
1004.64	-1.06
1005.066	0.84
1005.491	-3.86
1005.916	-1.16
1006.342	-1.86
1006.767	-3.46
1007.192	9.94
1007.617	-4.56
1008.042	-6.86
1008.468	-8.56
1008.893	-3.96
1009.318	-5.16
1009.743	-5.16
1010.168	2.24
1010.593	-1.76
1011.018	-7.86
1011.443	-3.46
1011.868	-0.36
1012.293	-3.16
1012.718	-7.86
1013.143	-2.16
1013.567	1.74
1013.992	-3.36
1014.417	-18.06
1014.842	3.54
1015.267	-8.96
1015.691	-3.66
1016.116	-1.56
1016.541	-0.06
1016.965	0.14
1017.39	5.24
1017.814	-0.86
1018.239	-7.46
1018.663	-3.36
1019.088	-10.66
1019.512	1.34
1019.937	-0.06
1020.361	-9.46
1020.785	-15.76
1021.21	-3.66
1021.634	0.44
1022.058	0.34
1022.483	-1.26
1022.907	-9.06
1023.331	-4.56
1023.755	-8.46
1024.179	-1.96
1024.604	-3.66
1025.028	-2.76
1025.452	3.14
1025.876	-1.66
1026.3	-7.86
1026.724	-8.96
1027.148	-2.16
1027.572	-7.96
1027.996	-5.56
1028.42	-4.06
1028.843	-5.56
1029.267	-6.16
1029.691	-6.16
1030.115	-3.06
1030.539	-2.56
1030.962	-2.66
1031.386	-13.66
1031.81	-3.26
1032.233	-0.26
1032.657	2.44
1033.08	-7.96
1033.504	-3.76
1033.927	-4.16
1034.351	-7.96
1034.774	-6.26
1035.198	-5.16
1035.621	-7.36
1036.045	-13.36
1036.468	-4.76
1036.891	-5.56
1037.315	-5.06
1037.738	-8.16
1038.161	-2.46
1038.584	-0.06
1039.008	-3.96
1039.431	-1.76
1039.854	2.14
1040.277	-7.16
1040.7	-12.56
1041.123	-0.96
1041.546	-5.66
1041.969	2.14
1042.392	-11.96
1042.815	-8.26
1043.238	-0.06
1043.661	-0.46
1044.084	-4.46
1044.507	-8.16
1044.93	-1.26
1045.352	-9.96
1045.775	-5.16
1046.198	2.24
1046.621	-3.06
1047.043	1.04
1047.466	-0.96
1047.889	-3.96
1048.311	0.44
1048.734	-3.66
1049.156	-2.46
1049.579	-1.96
1050.001	-4.06
1050.424	-2.16
1050.846	-7.46
1051.269	-2.36
1051.691	-12.96
1052.113	-6.36
1052.536	-1.96
1052.958	-2.46
1053.38	-0.96
1053.802	-7.66
1054.225	1.14
1054.647	-8.46
1055.069	-5.56
1055.491	0.84
1055.913	-8.96
1056.335	-0.26
1056.757	-5.46
1057.179	-6.86
1057.601	-6.66
1058.023	-10.26
1058.445	-3.36
1058.867	-5.46
1059.289	-2.26
1059.711	-7.66
1060.133	-6.16
1060.555	-1.66
1060.976	-12.06
1061.398	-1.66
1061.82	-2.56
1062.241	-4.56
1062.663	-8.16
1063.085	-3.26
1063.506	-0.16
1063.928	-2.96
1064.35	0.84
1064.771	-13.06
1065.193	1.44
1065.614	-11.16
1066.035	-2.46
1066.457	-5.66
1066.878	3.94
1067.3	-0.26
1067.721	-3.06
1068.142	-7.66
1068.564	-4.86
1068.985	-7.56
1069.406	-7.26
1069.827	-9.96
1070.248	-0.56
1070.67	-8.46
1071.091	-7.06
1071.512	-2.06
1071.933	-9.46
1072.354	-9.76
1072.775	-7.56
1073.196	-5.26
1073.617	-10.36
1074.038	-5.86
1074.459	-6.26
1074.88	-9.36
1075.3	-4.16
1075.721	-6.56
1076.142	1.44
1076.563	-4.76
1076.983	-9.36
1077.404	-8.56
1077.825	-9.46
1078.246	-4.76
1078.666	-11.06
1079.087	-7.66
1079.507	-10.86
1079.928	-4.46
1080.348	-4.26
1080.769	-4.66
1081.189	-2.16
1081.61	-3.66
1082.03	-6.46
1082.451	-8.66
1082.871	-6.96
1083.291	-13.66
1083.711	-5.16
1084.132	-4.06
1084.552	-2.86
1084.972	-0.46
1085.392	-12.26
1085.813	-12.46
1086.233	-8.36
1086.653	-10.46
1087.073	-4.26
1087.493	-10.96
1087.913	-6.56
1088.333	-8.86
1088.753	-3.26
1089.173	-2.16
1089.593	-1.16
1090.013	-0.46
1090.433	-0.26
1090.852	-5.66
1091.272	-2.26
1091.692	-4.56
1092.112	-4.56
1092.531	-11.86
1092.951	-16.46
1093.371	-0.96
1093.79	-1.86
1094.21	-5.36
1094.63	-11.66
1095.049	-9.36
1095.469	-1.96
1095.888	4.54
1096.308	1.14
1096.727	1.84
1097.146	-9.36
1097.566	-3.66
1097.985	-10.36
1098.405	-5.86
1098.824	-1.06
1099.243	-10.16
1099.662	-7.86
1100.082	-0.56
1100.501	-0.06
1100.92	-9.86
1101.339	-5.16
1101.758	-3.36
