Data from 20171114-ORNL-Ar_H_NY_Subt18_08-08-15-657.txt Node
Date: Tue Nov 14 08:08:15 EST 2017
User: Ender
Spectrometer: HR+D1039
Trigger mode: 0
Integration Time (sec): 2.730000E-2
Scans to average: 10
Electric dark correction enabled: true
Nonlinearity correction enabled: false
Boxcar width: 0
XAxis mode: Wavelengths
Number of Pixels in Spectrum: 2048
>>>>>Begin Spectral Data<<<<<
187.836	-8.96
188.309	-8.96
188.782	-8.96
189.255	-0.86
189.728	-3.66
190.201	9.14
190.674	0.34
191.147	1.64
191.619	-13.16
192.092	2.54
192.565	11.04
193.038	2.44
193.511	5.54
193.984	-2.56
194.456	-0.66
194.929	0.04
195.402	0.14
195.874	-3.06
196.347	-1.36
196.82	-5.96
197.292	3.74
197.765	-0.76
198.237	-5.26
198.71	2.74
199.182	-0.16
199.655	4.54
200.127	1.74
200.6	1.34
201.072	-1.46
201.544	0.64
202.017	-0.46
202.489	3.64
202.961	-0.66
203.433	-2.16
203.906	-2.06
204.378	-8.46
204.85	-1.96
205.322	-11.86
205.794	-5.26
206.266	-4.26
206.739	-6.36
207.211	-0.16
207.683	-9.16
208.155	-4.16
208.627	0.14
209.099	5.04
209.57	-3.46
210.042	-1.16
210.514	0.04
210.986	0.04
211.458	-10.26
211.93	-0.46
212.402	2.14
212.873	-8.36
213.345	-9.36
213.817	-16.36
214.288	-2.96
214.76	-1.86
215.232	-3.86
215.703	-1.46
216.175	3.04
216.646	2.54
217.118	-4.26
217.589	3.54
218.061	-4.36
218.532	-1.36
219.004	-1.76
219.475	-5.36
219.946	3.64
220.418	-1.56
220.889	4.84
221.36	-0.46
221.832	2.34
222.303	-6.76
222.774	2.04
223.245	-3.06
223.717	-11.96
224.188	-1.56
224.659	-7.76
225.13	-4.36
225.601	-0.46
226.072	5.74
226.543	1.04
227.014	-3.56
227.485	-3.46
227.956	0.74
228.427	2.04
228.898	2.54
229.369	1.34
229.839	-6.66
230.31	-6.36
230.781	2.04
231.252	-4.96
231.722	-6.86
232.193	-3.96
232.664	-0.26
233.135	-1.16
233.605	4.74
234.076	-10.36
234.546	-0.76
235.017	5.04
235.487	1.24
235.958	3.34
236.428	0.14
236.899	9.34
237.369	-0.66
237.84	-0.76
238.31	-2.06
238.78	2.24
239.251	-1.66
239.721	9.44
240.191	-3.76
240.662	0.44
241.132	6.94
241.602	-2.26
242.072	4.94
242.542	4.74
243.013	2.94
243.483	0.64
243.953	-0.96
244.423	-2.56
244.893	-3.96
245.363	6.54
245.833	0.84
246.303	0.94
246.773	9.64
247.243	4.14
247.712	1.44
248.182	2.24
248.652	9.14
249.122	1.24
249.592	11.04
250.061	15.44
250.531	28.34
251.001	13.14
251.471	19.64
251.94	19.64
252.41	7.34
252.879	5.04
253.349	15.44
253.818	9.64
254.288	-1.56
254.757	8.24
255.227	-1.26
255.696	4.24
256.166	11.04
256.635	10.14
257.105	7.14
257.574	3.64
258.043	11.34
258.513	11.84
258.982	18.34
259.451	2.24
259.92	8.94
260.389	8.84
260.859	16.04
261.328	15.64
261.797	22.34
262.266	5.14
262.735	8.34
263.204	9.24
263.673	-0.56
264.142	6.74
264.611	-1.86
265.08	2.54
265.549	5.54
266.018	6.84
266.487	1.84
266.955	0.54
267.424	2.24
267.893	10.94
268.362	6.54
268.83	8.44
269.299	9.84
269.768	8.04
270.236	9.54
270.705	4.24
271.174	7.44
271.642	7.74
272.111	7.14
272.579	19.44
273.048	21.44
273.516	25.14
273.985	24.84
274.453	21.24
274.922	18.04
275.39	13.64
275.858	0.54
276.327	9.24
276.795	19.24
277.263	12.34
277.731	28.54
278.2	42.74
278.668	57.64
279.136	42.34
279.604	18.24
280.072	14.84
280.54	15.54
281.008	12.14
281.477	18.34
281.945	13.14
282.413	9.44
282.881	15.74
283.348	5.74
283.816	15.84
284.284	17.14
284.752	23.54
285.22	13.24
285.688	14.24
286.156	22.34
286.623	40.64
287.091	40.14
287.559	22.94
288.026	16.14
288.494	16.24
288.962	13.14
289.429	12.24
289.897	20.44
290.364	12.64
290.832	18.84
291.3	21.44
291.767	16.94
292.234	14.14
292.702	16.04
293.169	16.34
293.637	23.64
294.104	18.04
294.571	10.34
295.039	14.54
295.506	15.94
295.973	20.54
296.44	12.84
296.908	14.84
297.375	15.74
297.842	17.94
298.309	14.74
298.776	15.04
299.243	20.34
299.71	14.84
300.177	20.14
300.644	18.04
301.111	26.24
301.578	18.84
302.045	12.64
302.512	18.34
302.979	25.64
303.446	17.94
303.913	16.74
304.379	20.74
304.846	26.44
305.313	27.04
305.78	17.44
306.246	29.04
306.713	25.44
307.18	20.34
307.646	23.04
308.113	26.34
308.579	21.94
309.046	25.94
309.512	33.04
309.979	14.64
310.445	31.54
310.912	22.84
311.378	35.44
311.845	29.04
312.311	34.44
312.777	31.04
313.244	29.64
313.71	32.14
314.176	24.04
314.642	35.14
315.109	35.34
315.575	35.04
316.041	37.54
316.507	34.54
316.973	42.24
317.439	36.44
317.905	34.54
318.371	30.64
318.837	36.64
319.303	35.94
319.769	34.04
320.235	33.54
320.701	37.34
321.167	33.74
321.633	32.34
322.099	43.84
322.564	42.14
323.03	41.94
323.496	44.64
323.962	40.74
324.427	33.54
324.893	47.94
325.359	33.64
325.824	40.64
326.29	36.54
326.755	39.04
327.221	44.14
327.686	33.54
328.152	47.44
328.617	45.54
329.083	44.24
329.548	43.04
330.014	47.04
330.479	39.64
330.944	44.24
331.41	45.04
331.875	42.64
332.34	41.64
332.805	35.64
333.271	47.24
333.736	47.94
334.201	55.04
334.666	45.64
335.131	53.84
335.596	47.94
336.061	51.44
336.526	44.64
336.991	48.74
337.456	57.14
337.921	51.44
338.386	48.24
338.851	42.84
339.316	46.04
339.781	54.44
340.246	53.74
340.711	50.34
341.175	51.34
341.64	51.44
342.105	53.34
342.569	56.94
343.034	51.04
343.499	54.14
343.963	52.94
344.428	61.84
344.893	62.54
345.357	57.74
345.822	62.14
346.286	59.64
346.751	78.64
347.215	63.24
347.679	77.14
348.144	97.74
348.608	79.44
349.073	74.44
349.537	71.24
350.001	79.74
350.465	89.24
350.93	81.74
351.394	80.84
351.858	69.84
352.322	89.64
352.786	83.94
353.25	105.44
353.715	114.74
354.179	101.64
354.643	123.64
355.107	128.24
355.571	106.44
356.035	105.64
356.498	124.94
356.962	123.34
357.426	132.54
357.89	118.54
358.354	94.34
358.818	76.84
359.281	78.24
359.745	83.74
360.209	78.34
360.673	74.94
361.136	79.84
361.6	85.94
362.064	80.64
362.527	88.64
362.991	93.44
363.454	81.24
363.918	76.14
364.381	79.24
364.845	86.54
365.308	79.94
365.772	85.04
366.235	84.84
366.698	90.34
367.162	84.44
367.625	87.04
368.088	91.94
368.552	90.54
369.015	90.94
369.478	100.84
369.941	108.64
370.404	99.94
370.867	105.24
371.331	106.54
371.794	119.14
372.257	101.94
372.72	116.84
373.183	111.14
373.646	106.34
374.109	107.14
374.572	101.04
375.035	112.84
375.497	109.24
375.96	106.64
376.423	106.94
376.886	116.94
377.349	112.64
377.811	101.74
378.274	107.04
378.737	112.54
379.199	111.14
379.662	108.34
380.125	118.04
380.587	114.24
381.05	118.24
381.512	125.94
381.975	133.64
382.437	128.94
382.9	132.14
383.362	141.84
383.825	138.44
384.287	155.64
384.75	142.94
385.212	145.04
385.674	146.44
386.136	134.74
386.599	126.64
387.061	128.84
387.523	126.14
387.985	130.54
388.447	144.74
388.91	148.24
389.372	163.34
389.834	150.24
390.296	144.94
390.758	162.04
391.22	169.24
391.682	216.64
392.144	302.34
392.606	235.44
393.068	169.04
393.529	170.34
393.991	155.84
394.453	152.74
394.915	164.74
395.377	197.14
395.838	223.04
396.3	152.74
396.762	141.94
397.224	136.74
397.685	137.04
398.147	135.34
398.608	133.04
399.07	125.24
399.531	136.64
399.993	145.34
400.454	155.94
400.916	150.74
401.377	144.64
401.839	150.14
402.3	155.34
402.762	169.14
403.223	183.64
403.684	172.94
404.145	161.34
404.607	164.54
405.068	166.64
405.529	167.04
405.99	193.04
406.451	176.84
406.913	172.54
407.374	163.54
407.835	161.94
408.296	170.04
408.757	177.14
409.218	192.74
409.679	183.04
410.14	173.44
410.601	187.64
411.062	190.14
411.522	199.34
411.983	202.44
412.444	181.04
412.905	178.74
413.366	190.74
413.826	192.44
414.287	225.74
414.748	266.64
415.208	244.14
415.669	212.04
416.13	206.84
416.59	199.54
417.051	211.94
417.511	222.74
417.972	231.34
418.432	243.44
418.893	290.74
419.353	257.64
419.814	200.64
420.274	183.64
420.734	187.64
421.195	206.14
421.655	209.54
422.115	204.14
422.576	200.24
423.036	202.24
423.496	213.24
423.956	223.24
424.416	237.14
424.876	271.34
425.336	252.64
425.797	268.74
426.257	250.34
426.717	244.04
427.177	234.14
427.637	228.54
428.097	235.74
428.556	251.14
429.016	278.34
429.476	270.04
429.936	278.34
430.396	283.34
430.856	303.14
431.315	319.44
431.775	362.74
432.235	387.54
432.694	363.64
433.154	369.64
433.614	397.04
434.073	344.84
434.533	296.34
434.993	270.84
435.452	283.74
435.912	303.24
436.371	292.14
436.83	288.14
437.29	276.24
437.749	247.74
438.209	244.74
438.668	287.74
439.127	289.44
439.587	267.64
440.046	253.94
440.505	264.74
440.964	287.74
441.424	329.44
441.883	317.54
442.342	263.14
442.801	228.74
443.26	225.44
443.719	225.04
444.178	225.54
444.637	218.74
445.096	230.24
445.555	225.64
446.014	225.64
446.473	232.24
446.932	241.84
447.391	231.44
447.849	233.64
448.308	223.44
448.767	227.04
449.226	243.94
449.685	243.84
450.143	254.34
450.602	239.44
451.061	227.34
451.519	229.64
451.978	228.84
452.436	244.24
452.895	245.24
453.353	252.94
453.812	246.24
454.27	246.34
454.729	240.14
455.187	244.44
455.646	248.24
456.104	248.34
456.562	266.04
457.021	273.64
457.479	267.94
457.937	276.64
458.395	274.24
458.854	250.74
459.312	257.94
459.77	285.34
460.228	258.14
460.686	246.24
461.144	248.24
461.602	245.84
462.06	245.04
462.518	261.04
462.976	254.84
463.434	259.64
463.892	268.14
464.35	277.24
464.808	291.64
465.266	269.14
465.724	278.74
466.181	280.24
466.639	271.24
467.097	298.14
467.555	299.54
468.012	308.34
468.47	312.54
468.928	323.14
469.385	343.14
469.843	347.64
470.3	351.44
470.758	362.94
471.215	384.34
471.673	415.74
472.13	406.24
472.588	423.44
473.045	380.54
473.503	380.04
473.96	389.84
474.417	406.64
474.875	435.34
475.332	478.24
475.789	467.14
476.246	468.84
476.704	486.44
477.161	512.84
477.618	523.64
478.075	563.54
478.532	615.14
478.989	699.74
479.446	821.34
479.903	778.24
480.36	811.74
480.817	873.44
481.274	970.94
481.731	1075.94
482.188	1164.44
482.645	1294.04
483.102	1399.14
483.558	1545.64
484.015	1587.84
484.472	1570.24
484.929	1510.34
485.385	1463.34
485.842	1422.94
486.299	1361.44
486.755	1294.14
487.212	1094.84
487.668	922.54
488.125	847.84
488.582	776.94
489.038	745.84
489.494	704.74
489.951	679.84
490.407	663.14
490.864	648.14
491.32	655.44
491.776	644.14
492.233	636.74
492.689	614.24
493.145	609.84
493.602	607.94
494.058	613.24
494.514	610.14
494.97	641.04
495.426	651.24
495.882	625.44
496.338	622.94
496.794	633.24
497.251	613.44
497.707	633.04
498.163	631.44
498.618	648.84
499.074	643.84
499.53	685.94
499.986	674.74
500.442	653.54
500.898	626.94
501.354	635.74
501.809	655.14
502.265	650.24
502.721	666.34
503.177	682.64
503.632	672.14
504.088	680.74
504.543	715.94
504.999	714.44
505.455	652.34
505.91	634.54
506.366	631.14
506.821	633.14
507.277	628.04
507.732	633.94
508.187	623.34
508.643	630.84
509.098	646.14
509.553	662.44
510.009	668.34
510.464	668.74
510.919	681.34
511.375	699.44
511.83	707.24
512.285	725.24
512.74	754.54
513.195	780.94
513.65	763.14
514.105	758.54
514.56	771.74
515.015	786.44
515.47	796.54
515.925	783.14
516.38	793.54
516.835	790.04
517.29	787.04
517.745	777.64
518.2	763.74
518.655	746.54
519.109	735.84
519.564	733.54
520.019	732.24
520.474	723.24
520.928	724.04
521.383	723.24
521.838	717.34
522.292	715.44
522.747	713.34
523.201	709.94
523.656	696.54
524.11	688.74
524.565	689.64
525.019	695.14
525.474	698.24
525.928	705.94
526.382	705.44
526.837	702.04
527.291	711.54
527.745	696.44
528.2	689.54
528.654	691.04
529.108	688.34
529.562	689.64
530.016	684.24
530.47	684.54
530.925	692.54
531.379	691.94
531.833	706.34
532.287	701.84
532.741	693.34
533.195	699.44
533.649	710.04
534.103	715.54
534.556	708.94
535.01	709.44
535.464	702.14
535.918	712.34
536.372	720.44
536.826	723.24
537.279	701.84
537.733	711.64
538.187	711.14
538.64	721.94
539.094	717.14
539.548	736.04
540.001	721.64
540.455	723.04
540.908	731.64
541.362	740.64
541.815	747.04
542.269	753.14
542.722	751.54
543.175	762.34
543.629	776.64
544.082	785.24
544.536	788.54
544.989	786.34
545.442	791.64
545.895	788.44
546.349	778.04
546.802	793.64
547.255	795.04
547.708	808.54
548.161	798.84
548.614	818.64
549.067	823.84
549.52	829.24
549.973	806.84
550.426	807.34
550.879	796.14
551.332	802.04
551.785	812.34
552.238	804.24
552.691	815.54
553.144	837.84
553.596	856.14
554.049	860.84
554.502	895.04
554.955	913.44
555.407	897.54
555.86	894.24
556.313	887.94
556.765	884.74
557.218	880.74
557.67	890.54
558.123	871.34
558.576	865.34
559.028	882.54
559.48	882.64
559.933	876.14
560.385	841.94
560.838	812.64
561.29	787.44
561.742	781.04
562.195	768.24
562.647	775.24
563.099	778.74
563.551	765.14
564.004	790.14
564.456	773.94
564.908	764.54
565.36	742.24
565.812	744.94
566.264	725.74
566.716	727.84
567.168	713.44
567.62	726.74
568.072	701.34
568.524	692.04
568.976	704.84
569.428	672.74
569.88	679.34
570.332	683.64
570.784	684.34
571.235	682.84
571.687	695.14
572.139	701.24
572.59	713.64
573.042	715.44
573.494	715.54
573.945	704.24
574.397	691.84
574.849	694.74
575.3	697.14
575.752	677.64
576.203	681.14
576.655	688.84
577.106	673.14
577.557	666.84
578.009	667.44
578.46	673.64
578.912	659.34
579.363	665.04
579.814	665.54
580.265	666.04
580.717	684.74
581.168	673.94
581.619	677.34
582.07	677.64
582.521	671.14
582.972	675.54
583.423	682.24
583.875	682.84
584.326	712.84
584.777	757.94
585.227	832.24
585.678	919.24
586.129	1002.24
586.58	1071.84
587.031	1145.14
587.482	1292.24
587.933	1462.84
588.384	1294.24
588.834	975.54
589.285	808.34
589.736	788.54
590.186	782.94
590.637	780.84
591.088	749.64
591.538	734.54
591.989	733.14
592.439	735.64
592.89	724.34
593.34	711.94
593.791	716.74
594.241	710.54
594.692	724.24
595.142	714.24
595.593	709.14
596.043	709.84
596.493	713.74
596.943	721.64
597.394	732.34
597.844	720.74
598.294	738.34
598.744	749.24
599.195	790.34
599.645	823.44
600.095	866.34
600.545	924.74
600.995	964.94
601.445	1024.24
601.895	1089.14
602.345	1134.34
602.795	1119.54
603.245	1070.24
603.695	1010.34
604.145	953.74
604.594	913.84
605.044	861.74
605.494	812.04
605.944	771.64
606.393	747.54
606.843	725.74
607.293	744.14
607.743	734.44
608.192	752.54
608.642	767.64
609.091	768.44
609.541	778.74
609.99	781.04
610.44	768.84
610.889	731.24
611.339	701.74
611.788	692.74
612.238	703.44
612.687	720.04
613.136	725.84
613.586	740.14
614.035	748.24
614.484	764.64
614.933	774.44
615.383	757.74
615.832	745.34
616.281	731.34
616.73	693.24
617.179	661.84
617.628	655.54
618.077	641.74
618.526	623.14
618.975	626.54
619.424	621.24
619.873	615.44
620.322	622.24
620.771	608.14
621.22	607.84
621.669	587.04
622.118	590.14
622.567	578.04
623.015	577.84
623.464	569.84
623.913	565.34
624.361	557.54
624.81	561.54
625.259	551.34
625.707	549.14
626.156	557.64
626.604	570.64
627.053	571.44
627.501	561.34
627.95	578.94
628.398	593.34
628.847	580.74
629.295	577.84
629.744	588.44
630.192	565.44
630.64	561.44
631.089	580.24
631.537	591.34
631.985	586.14
632.433	604.54
632.881	603.64
633.33	676.94
633.778	659.84
634.226	578.34
634.674	584.54
635.122	589.84
635.57	600.24
636.018	634.24
636.466	585.54
636.914	563.84
637.362	573.04
637.81	577.44
638.258	587.24
638.705	594.74
639.153	612.24
639.601	631.44
640.049	648.64
640.497	684.94
640.944	701.64
641.392	654.04
641.84	615.94
642.287	585.24
642.735	577.34
643.182	582.34
643.63	586.34
644.078	579.64
644.525	602.24
644.973	608.14
645.42	611.14
645.867	628.44
646.315	653.24
646.762	666.74
647.21	704.84
647.657	731.44
648.104	753.14
648.551	788.84
648.999	844.74
649.446	931.34
649.893	1019.54
650.34	1187.64
650.787	1423.74
651.234	1772.64
651.682	2306.94
652.129	3145.04
652.576	4580.94
653.023	6741.04
653.47	9181.34
653.917	11395.34
654.363	13047.64
654.81	14290.34
655.257	13605.44
655.704	8910.24
656.151	5272.14
656.598	3434.14
657.044	2421.24
657.491	1868.04
657.938	1498.54
658.385	1252.14
658.831	1089.54
659.278	969.74
659.724	863.04
660.171	794.84
660.618	736.94
661.064	697.74
661.511	674.74
661.957	669.84
662.404	659.74
662.85	661.94
663.296	626.34
663.743	570.74
664.189	549.34
664.635	545.84
665.082	527.34
665.528	537.84
665.974	526.84
666.42	512.94
666.867	518.04
667.313	500.44
667.759	486.84
668.205	484.44
668.651	497.84
669.097	488.34
669.543	509.24
669.989	481.24
670.435	458.64
670.881	453.84
671.327	459.94
671.773	472.84
672.219	497.54
672.665	542.94
673.11	580.14
673.556	632.74
674.002	674.74
674.448	665.24
674.893	556.04
675.339	481.54
675.785	451.14
676.23	415.14
676.676	392.54
677.122	386.74
677.567	377.24
678.013	370.84
678.458	363.24
678.904	368.04
679.349	349.64
679.794	357.44
680.24	359.84
680.685	352.54
681.131	357.74
681.576	355.24
682.021	358.64
682.466	350.84
682.912	352.64
683.357	362.94
683.802	398.74
684.247	410.84
684.692	460.14
685.137	505.04
685.583	543.44
686.028	567.44
686.473	523.54
686.918	444.24
687.363	411.94
687.807	403.74
688.252	373.94
688.697	360.14
689.142	341.04
689.587	334.84
690.032	330.34
690.477	353.44
690.921	364.34
691.366	385.44
691.811	411.34
692.255	441.14
692.7	465.84
693.145	515.74
693.589	720.54
694.034	1174.54
694.478	1574.54
694.923	1740.14
695.367	2250.54
695.812	1204.74
696.256	501.64
696.701	376.74
697.145	354.14
697.59	335.84
698.034	324.04
698.478	334.94
698.922	333.04
699.367	330.44
699.811	343.14
700.255	365.44
700.699	387.84
701.143	432.24
701.588	483.44
702.032	519.74
702.476	520.64
702.92	513.34
703.364	500.64
703.808	657.04
704.252	1061.44
704.696	1480.84
705.14	1670.64
705.584	2131.04
706.027	1067.54
706.471	524.24
706.915	400.74
707.359	349.94
707.803	325.94
708.246	310.24
708.69	319.94
709.134	320.54
709.577	327.04
710.021	319.54
710.465	317.04
710.908	306.14
711.352	308.64
711.795	326.14
712.239	359.04
712.682	394.24
713.126	415.94
713.569	467.44
714.012	379.74
714.456	330.74
714.899	303.24
715.342	282.24
715.786	263.74
716.229	265.44
716.672	269.84
717.115	251.34
717.558	251.14
718.002	253.14
718.445	267.34
718.888	288.94
719.331	294.84
719.774	313.24
720.217	312.54
720.66	288.54
721.103	260.84
721.546	256.14
721.989	252.84
722.432	237.44
722.874	244.04
723.317	235.94
723.76	243.94
724.203	257.04
724.645	335.44
725.088	457.54
725.531	581.94
725.974	642.14
726.416	552.74
726.859	309.94
727.301	247.44
727.744	244.34
728.187	241.04
728.629	239.34
729.071	243.24
729.514	262.74
729.956	279.94
730.399	294.44
730.841	291.94
731.283	272.94
731.726	272.74
732.168	268.44
732.61	272.94
733.053	290.54
733.495	324.04
733.937	362.74
734.379	403.94
734.821	443.34
735.263	553.84
735.705	870.14
736.148	1641.04
736.59	2622.94
737.032	3022.94
737.474	2470.74
737.916	812.44
738.357	427.44
738.799	333.84
739.241	303.14
739.683	293.04
740.125	303.04
740.567	304.64
741.008	317.94
741.45	320.34
741.892	325.64
742.334	352.14
742.775	367.44
743.217	346.34
743.658	275.34
744.1	264.14
744.542	263.34
744.983	317.04
745.425	351.94
745.866	345.64
746.307	296.74
746.749	288.84
747.19	340.74
747.632	472.74
748.073	936.64
748.514	1929.14
748.956	2884.94
749.397	3633.74
749.838	2986.34
750.279	2946.74
750.72	1492.24
751.162	559.54
751.603	322.94
752.044	253.14
752.485	219.64
752.926	214.74
753.367	203.64
753.808	204.94
754.249	193.74
754.69	187.04
755.131	187.54
755.572	179.74
756.013	179.44
756.453	184.74
756.894	193.44
757.335	198.54
757.776	196.14
758.216	201.64
758.657	199.14
759.098	209.04
759.538	233.84
759.979	273.04
760.42	386.84
760.86	734.14
761.301	1923.54
761.741	4541.94
762.182	6378.24
762.622	4461.54
763.063	1311.04
763.503	541.14
763.943	347.74
764.384	346.64
764.824	397.94
765.264	437.94
765.705	303.44
766.145	212.44
766.585	187.74
767.025	187.94
767.465	195.24
767.906	239.94
768.346	322.24
768.786	331.54
769.226	271.34
769.666	347.24
770.106	656.44
770.546	1611.34
770.986	2654.84
771.426	2349.44
771.866	794.84
772.306	338.54
772.745	211.34
773.185	176.84
773.625	170.54
774.065	169.04
774.505	201.14
774.944	317.24
775.384	687.24
775.824	1206.34
776.263	1167.74
776.703	508.34
777.142	222.74
777.582	156.84
778.021	141.94
778.461	146.84
778.9	145.84
779.34	136.84
779.779	116.54
780.219	115.64
780.658	110.24
781.097	115.84
781.537	119.04
781.976	117.84
782.415	107.94
782.855	112.14
783.294	101.24
783.733	111.14
784.172	114.04
784.611	109.54
785.05	113.64
785.489	114.84
785.928	121.94
786.367	125.14
786.806	116.84
787.245	124.94
787.684	138.54
788.123	151.84
788.562	129.84
789.001	131.84
789.44	122.84
789.879	121.84
790.317	122.14
790.756	135.64
791.195	139.34
791.634	156.14
792.072	210.74
792.511	385.84
792.95	1061.24
793.388	2137.14
793.827	1892.74
794.265	684.24
794.704	298.64
795.142	184.14
795.581	155.74
796.019	139.04
796.458	126.04
796.896	129.54
797.334	137.24
797.773	166.24
798.211	225.04
798.649	467.54
799.087	1049.64
799.526	1632.04
799.964	2029.04
800.402	1992.34
800.84	757.14
801.278	302.44
801.716	195.64
802.154	161.14
802.592	152.74
803.03	140.14
803.468	139.64
803.906	149.44
804.344	152.04
804.782	142.04
805.22	133.04
805.658	133.94
806.096	148.84
806.533	157.94
806.971	175.44
807.409	219.34
807.847	318.94
808.284	706.84
808.722	1927.14
809.16	3289.14
809.597	3194.04
810.035	5455.24
810.472	5660.64
810.91	2082.44
811.347	806.74
811.785	406.04
812.222	258.14
812.66	200.34
813.097	170.14
813.535	138.44
813.972	129.54
814.409	122.64
814.846	107.74
815.284	109.94
815.721	111.94
816.158	108.44
816.595	125.14
817.032	189.04
817.47	203.14
817.907	164.94
818.344	150.84
818.781	118.54
819.218	101.74
819.655	118.44
820.092	191.64
820.529	209.14
820.966	169.14
821.403	135.74
821.839	107.24
822.276	106.04
822.713	123.94
823.15	135.44
823.587	118.54
824.023	149.34
824.46	319.94
824.897	924.74
825.333	1343.94
825.77	585.64
826.206	235.94
826.643	137.94
827.08	100.74
827.516	81.14
827.953	74.64
828.389	82.34
828.825	71.34
829.262	74.04
829.698	57.44
830.135	70.44
830.571	64.54
831.007	68.04
831.443	67.64
831.88	66.44
832.316	70.64
832.752	65.34
833.188	65.74
833.624	59.94
834.06	69.64
834.497	67.84
834.933	79.54
835.369	71.74
835.805	70.74
836.241	79.44
836.677	80.04
837.112	87.24
837.548	111.64
837.984	136.64
838.42	205.14
838.856	520.54
839.292	1535.54
839.727	2286.84
840.163	1075.44
840.599	961.54
841.034	2060.34
841.47	2083.64
841.906	784.34
842.341	342.04
842.777	239.84
843.212	316.94
843.648	309.44
844.083	148.74
844.519	100.54
844.954	78.04
845.39	58.14
845.825	63.44
846.261	57.84
846.696	58.54
847.131	54.34
847.566	61.64
848.002	54.14
848.437	54.64
848.872	63.04
849.307	66.34
849.742	84.84
850.177	185.94
850.613	570.54
851.048	871.54
851.483	381.54
851.918	153.44
852.353	92.24
852.788	66.94
853.223	62.24
853.657	55.64
854.092	42.44
854.527	42.74
854.962	43.54
855.397	45.34
855.832	50.34
856.266	40.34
856.701	44.14
857.136	32.24
857.57	41.64
858.005	47.74
858.44	61.84
858.874	44.34
859.309	52.54
859.743	40.14
860.178	45.94
860.612	40.54
861.047	57.44
861.481	67.34
861.915	70.44
862.35	54.04
862.784	35.34
863.218	40.14
863.653	33.04
864.087	46.44
864.521	57.14
864.955	72.14
865.39	160.04
865.824	178.74
866.258	113.54
866.692	162.44
867.126	170.74
867.56	101.04
867.994	56.24
868.428	40.64
868.862	47.04
869.296	53.44
869.73	55.04
870.164	58.64
870.598	44.44
871.031	46.74
871.465	30.04
871.899	37.84
872.333	21.24
872.766	28.44
873.2	21.84
873.634	24.04
874.067	25.74
874.501	27.64
874.935	41.84
875.368	34.84
875.802	27.74
876.235	28.04
876.669	25.64
877.102	23.74
877.535	28.04
877.969	27.94
878.402	22.14
878.836	22.94
879.269	25.74
879.702	26.44
880.135	18.14
880.569	28.94
881.002	25.14
881.435	21.14
881.868	22.84
882.301	22.54
882.734	24.54
883.167	22.14
883.601	22.34
884.034	22.54
884.467	17.64
884.899	21.54
885.332	14.94
885.765	19.04
886.198	17.94
886.631	25.44
887.064	15.84
887.497	21.74
887.929	24.04
888.362	16.14
888.795	14.04
889.228	16.64
889.66	24.04
890.093	16.94
890.526	20.54
890.958	22.14
891.391	20.34
891.823	20.14
892.256	22.34
892.688	12.24
893.121	18.44
893.553	18.44
893.985	26.84
894.418	27.14
894.85	15.04
895.282	18.44
895.715	16.34
896.147	20.04
896.579	19.14
897.011	8.54
897.444	17.94
897.876	16.74
898.308	29.04
898.74	16.14
899.172	18.64
899.604	28.24
900.036	24.14
900.468	15.24
900.9	19.34
901.332	23.84
901.764	16.14
902.196	19.34
902.628	16.44
903.06	19.84
903.491	29.94
903.923	23.74
904.355	18.34
904.787	29.74
905.218	25.04
905.65	18.74
906.082	19.44
906.513	12.74
906.945	26.44
907.376	10.54
907.808	19.04
908.239	26.74
908.671	19.64
909.102	22.64
909.534	28.24
909.965	49.04
910.397	94.54
910.828	318.24
911.259	462.94
911.691	221.74
912.122	105.84
912.553	56.34
912.984	37.94
913.415	23.84
913.847	29.74
914.278	21.84
914.709	21.34
915.14	20.94
915.571	21.14
916.002	8.24
916.433	19.44
916.864	24.34
917.295	20.74
917.726	23.44
918.157	15.74
918.587	27.54
919.018	27.54
919.449	22.84
919.88	28.14
920.311	33.94
920.741	53.64
921.172	168.24
921.603	153.34
922.033	72.04
922.464	46.04
922.895	25.34
923.325	19.74
923.756	17.24
924.186	13.74
924.617	25.94
925.047	37.64
925.478	57.14
925.908	47.64
926.338	29.84
926.769	15.04
927.199	18.84
927.629	8.24
928.06	24.14
928.49	17.94
928.92	20.54
929.35	16.94
929.78	9.24
930.21	13.44
930.641	5.64
931.071	11.04
931.501	7.64
931.931	10.24
932.361	12.94
932.791	5.04
933.221	4.04
933.651	3.74
934.08	19.34
934.51	36.34
934.94	11.44
935.37	9.74
935.8	13.14
936.229	5.34
936.659	9.24
937.089	8.14
937.519	15.84
937.948	21.24
938.378	16.44
938.807	7.54
939.237	1.84
939.666	11.14
940.096	-4.36
940.525	-2.46
940.955	8.74
941.384	8.24
941.814	5.64
942.243	9.34
942.672	7.54
943.102	2.04
943.531	-0.06
943.96	6.24
944.39	4.94
944.819	-0.46
945.248	0.54
945.677	7.24
946.106	5.44
946.535	11.04
946.964	0.14
947.393	7.34
947.822	4.14
948.251	-0.06
948.68	5.24
949.109	3.44
949.538	8.74
949.967	3.84
950.396	3.84
950.825	2.84
951.254	1.44
951.682	0.44
952.111	6.04
952.54	2.94
952.969	0.94
953.397	-5.16
953.826	3.54
954.254	-4.56
954.683	2.24
955.112	-3.06
955.54	3.44
955.969	6.04
956.397	2.44
956.826	2.94
957.254	10.84
957.682	6.94
958.111	4.84
958.539	1.74
958.967	3.24
959.396	0.34
959.824	6.54
960.252	3.14
960.68	-2.76
961.109	-3.06
961.537	-2.96
961.965	2.24
962.393	0.14
962.821	1.94
963.249	-1.46
963.677	6.74
964.105	6.64
964.533	47.14
964.961	50.44
965.389	23.24
965.817	11.74
966.245	2.74
966.672	5.64
967.1	-0.96
967.528	1.04
967.956	-6.26
968.383	1.54
968.811	-2.96
969.239	-6.06
969.666	3.24
970.094	0.44
970.522	1.64
970.949	3.84
971.377	-7.86
971.804	1.14
972.232	-2.16
972.659	1.04
973.087	-5.96
973.514	0.84
973.941	-9.16
974.369	6.14
974.796	-1.96
975.223	-1.56
975.651	-0.36
976.078	5.84
976.505	-3.76
976.932	4.74
977.359	13.24
977.786	14.74
978.214	1.64
978.641	-2.26
979.068	1.44
979.495	-1.56
979.922	-0.36
980.349	-1.16
980.776	3.64
981.202	0.44
981.629	4.64
982.056	1.64
982.483	-0.66
982.91	8.54
983.337	-4.26
983.763	4.34
984.19	-5.56
984.617	-2.46
985.043	3.04
985.47	-0.56
985.897	-2.46
986.323	-6.36
986.75	4.04
987.176	3.04
987.603	2.14
988.029	2.64
988.456	0.94
988.882	2.94
989.308	-6.36
989.735	-3.46
990.161	0.64
990.587	-0.86
991.014	2.74
991.44	9.14
991.866	3.14
992.292	2.24
992.719	-4.06
993.145	6.24
993.571	-3.96
993.997	-2.46
994.423	-1.56
994.849	-4.86
995.275	-0.16
995.701	-0.36
996.127	-2.86
996.553	4.44
996.979	-2.76
997.405	-4.86
997.83	-5.56
998.256	-1.46
998.682	-8.76
999.108	-6.36
999.534	-2.16
999.959	2.14
1000.385	-3.16
1000.811	-1.56
1001.236	-5.26
1001.662	-4.46
1002.087	-10.56
1002.513	-0.96
1002.938	7.94
1003.364	2.94
1003.789	-0.16
1004.215	7.64
1004.64	0.74
1005.066	-0.36
1005.491	-1.76
1005.916	3.44
1006.342	2.04
1006.767	-7.36
1007.192	7.14
1007.617	-7.06
1008.042	-1.56
1008.468	-5.46
1008.893	-4.36
1009.318	-4.76
1009.743	-3.36
1010.168	2.94
1010.593	3.34
1011.018	-8.66
1011.443	-6.76
1011.868	1.44
1012.293	-6.46
1012.718	-4.16
1013.143	2.94
1013.567	6.14
1013.992	1.14
1014.417	-9.66
1014.842	-1.96
1015.267	-2.66
1015.691	-0.96
1016.116	1.74
1016.541	2.74
1016.965	6.14
1017.39	-1.86
1017.814	-1.56
1018.239	-0.86
1018.663	-5.96
1019.088	-13.76
1019.512	0.04
1019.937	-0.96
1020.361	-4.46
1020.785	-7.56
1021.21	-2.66
1021.634	-3.56
1022.058	4.14
1022.483	6.84
1022.907	-2.06
1023.331	-0.26
1023.755	0.34
1024.179	-2.76
1024.604	-6.96
1025.028	-1.66
1025.452	-8.76
1025.876	-3.16
1026.3	2.44
1026.724	-9.76
1027.148	-1.86
1027.572	-10.06
1027.996	-0.56
1028.42	2.74
1028.843	-3.66
1029.267	-8.16
1029.691	-1.26
1030.115	-4.96
1030.539	-6.26
1030.962	-8.26
1031.386	-13.26
1031.81	0.44
1032.233	3.64
1032.657	-1.56
1033.08	-0.86
1033.504	0.94
1033.927	0.34
1034.351	0.34
1034.774	-2.76
1035.198	4.54
1035.621	-4.66
1036.045	-0.76
1036.468	2.74
1036.891	-13.66
1037.315	-9.16
1037.738	-9.96
1038.161	2.64
1038.584	-9.46
1039.008	-4.36
1039.431	-0.36
1039.854	-3.56
1040.277	-0.26
1040.7	-11.36
1041.123	-1.56
1041.546	-8.16
1041.969	-6.66
1042.392	-3.36
1042.815	-2.26
1043.238	6.24
1043.661	4.14
1044.084	-0.86
1044.507	-10.96
1044.93	-0.36
1045.352	-9.26
1045.775	-1.16
1046.198	-3.66
1046.621	2.14
1047.043	5.04
1047.466	4.24
1047.889	3.74
1048.311	-6.56
1048.734	0.14
1049.156	-2.46
1049.579	6.04
1050.001	0.24
1050.424	-2.66
1050.846	-2.26
1051.269	-6.06
1051.691	-7.66
1052.113	-5.16
1052.536	-2.36
1052.958	4.04
1053.38	-2.56
1053.802	-9.66
1054.225	1.54
1054.647	-7.46
1055.069	-6.36
1055.491	3.54
1055.913	-6.96
1056.335	6.74
1056.757	-0.06
1057.179	-2.06
1057.601	2.84
1058.023	-4.26
1058.445	3.14
1058.867	-6.46
1059.289	0.84
1059.711	-6.16
1060.133	-1.06
1060.555	-7.26
1060.976	-7.36
1061.398	-4.36
1061.82	-10.46
1062.241	-0.86
1062.663	-6.46
1063.085	-4.06
1063.506	2.44
1063.928	2.34
1064.35	-1.26
1064.771	-9.96
1065.193	0.64
1065.614	-7.16
1066.035	-2.16
1066.457	0.24
1066.878	0.54
1067.3	-6.66
1067.721	0.84
1068.142	-3.76
1068.564	-2.26
1068.985	-7.86
1069.406	-7.46
1069.827	-4.06
1070.248	4.34
1070.67	-5.66
1071.091	-2.76
1071.512	1.74
1071.933	-2.36
1072.354	-9.86
1072.775	-5.76
1073.196	-4.66
1073.617	1.44
1074.038	-0.76
1074.459	2.04
1074.88	-1.96
1075.3	4.04
1075.721	-5.56
1076.142	6.64
1076.563	-3.76
1076.983	-5.06
1077.404	-2.66
1077.825	-10.76
1078.246	2.04
1078.666	-8.26
1079.087	-3.76
1079.507	-8.46
1079.928	0.44
1080.348	-9.26
1080.769	-5.16
1081.189	1.34
1081.61	-3.26
1082.03	-3.26
1082.451	-11.56
1082.871	3.04
1083.291	-8.96
1083.711	-9.36
1084.132	-8.36
1084.552	-7.66
1084.972	-2.46
1085.392	-8.16
1085.813	-12.46
1086.233	-1.66
1086.653	-7.36
1087.073	-2.56
1087.493	-8.76
1087.913	-4.86
1088.333	-2.96
1088.753	-1.06
1089.173	0.54
1089.593	-3.56
1090.013	0.94
1090.433	4.24
1090.852	-7.86
1091.272	-0.46
1091.692	-1.86
1092.112	-0.96
1092.531	-5.86
1092.951	-12.66
1093.371	-0.96
1093.79	1.04
1094.21	1.34
1094.63	-1.66
1095.049	-2.66
1095.469	-2.26
1095.888	-3.56
1096.308	5.04
1096.727	6.54
1097.146	-2.56
1097.566	-4.46
1097.985	-5.46
1098.405	1.94
1098.824	-4.56
1099.243	-2.96
1099.662	-1.16
1100.082	-5.06
1100.501	-5.36
1100.92	-3.56
1101.339	-4.46
1101.758	-6.46
