Data from 20171114-ORNL-Ar_H_NY_Subt18_08-04-59-387.txt Node
Date: Tue Nov 14 08:04:59 EST 2017
User: Ender
Spectrometer: HR+D1039
Trigger mode: 0
Integration Time (sec): 2.730000E-2
Scans to average: 10
Electric dark correction enabled: true
Nonlinearity correction enabled: false
Boxcar width: 0
XAxis mode: Wavelengths
Number of Pixels in Spectrum: 2048
>>>>>Begin Spectral Data<<<<<
187.836	-7.35
188.309	-7.35
188.782	-7.35
189.255	1.55
189.728	0.55
190.201	2.75
190.674	1.35
191.147	3.25
191.619	-6.85
192.092	7.65
192.565	2.05
193.038	5.05
193.511	-1.95
193.984	-2.65
194.456	-7.55
194.929	5.85
195.402	-0.05
195.874	-3.65
196.347	-1.25
196.82	-6.45
197.292	6.45
197.765	2.95
198.237	-6.65
198.71	1.65
199.182	-6.85
199.655	4.95
200.127	3.35
200.6	0.25
201.072	-2.25
201.544	-2.05
202.017	-0.15
202.489	0.65
202.961	-2.45
203.433	-2.95
203.906	-5.35
204.378	-0.45
204.85	0.35
205.322	-8.75
205.794	1.15
206.266	-3.35
206.739	-9.45
207.211	-0.15
207.683	-6.65
208.155	-3.55
208.627	-8.65
209.099	-3.45
209.57	-6.75
210.042	-3.25
210.514	-2.35
210.986	-4.95
211.458	-7.25
211.93	-2.45
212.402	1.75
212.873	-3.65
213.345	-3.65
213.817	-8.35
214.288	-2.75
214.76	-11.55
215.232	-1.15
215.703	-4.55
216.175	-2.45
216.646	-0.45
217.118	-0.65
217.589	-3.15
218.061	-3.65
218.532	-0.55
219.004	-0.95
219.475	1.05
219.946	-1.45
220.418	-2.65
220.889	8.55
221.36	3.95
221.832	-2.15
222.303	-10.45
222.774	-0.05
223.245	-6.35
223.717	-1.95
224.188	-5.75
224.659	-3.35
225.13	-9.05
225.601	-7.55
226.072	0.35
226.543	-4.15
227.014	-0.95
227.485	-1.95
227.956	-3.75
228.427	-0.55
228.898	6.95
229.369	0.15
229.839	-3.75
230.31	-2.75
230.781	3.25
231.252	1.25
231.722	-2.25
232.193	-3.05
232.664	3.55
233.135	1.55
233.605	1.55
234.076	-5.65
234.546	2.35
235.017	7.85
235.487	4.65
235.958	-1.55
236.428	0.95
236.899	10.25
237.369	7.45
237.84	-3.15
238.31	3.45
238.78	3.65
239.251	0.35
239.721	6.35
240.191	4.85
240.662	3.85
241.132	4.45
241.602	0.55
242.072	4.05
242.542	6.95
243.013	-0.65
243.483	-0.25
243.953	-1.45
244.423	2.75
244.893	-1.25
245.363	4.15
245.833	0.35
246.303	-2.65
246.773	11.15
247.243	5.25
247.712	7.25
248.182	13.45
248.652	9.55
249.122	0.05
249.592	9.75
250.061	23.95
250.531	39.65
251.001	19.45
251.471	21.35
251.94	20.55
252.41	9.05
252.879	1.95
253.349	15.55
253.818	13.25
254.288	7.05
254.757	6.85
255.227	4.55
255.696	6.65
256.166	5.45
256.635	10.05
257.105	11.05
257.574	8.15
258.043	13.35
258.513	17.25
258.982	13.45
259.451	7.75
259.92	15.55
260.389	13.35
260.859	23.35
261.328	13.65
261.797	22.25
262.266	12.95
262.735	12.05
263.204	5.05
263.673	6.35
264.142	8.55
264.611	-0.75
265.08	-1.25
265.549	2.25
266.018	7.75
266.487	5.45
266.955	0.65
267.424	2.75
267.893	10.65
268.362	4.45
268.83	6.65
269.299	13.85
269.768	9.25
270.236	8.55
270.705	8.15
271.174	9.55
271.642	9.35
272.111	7.85
272.579	19.15
273.048	26.45
273.516	27.15
273.985	30.95
274.453	31.95
274.922	22.05
275.39	18.85
275.858	2.85
276.327	14.05
276.795	15.35
277.263	14.45
277.731	32.35
278.2	54.95
278.668	65.15
279.136	52.85
279.604	22.75
280.072	21.35
280.54	15.45
281.008	16.55
281.477	17.55
281.945	13.45
282.413	19.55
282.881	18.35
283.348	3.95
283.816	20.85
284.284	15.15
284.752	30.55
285.22	17.15
285.688	19.35
286.156	24.55
286.623	48.65
287.091	60.45
287.559	25.65
288.026	24.55
288.494	20.15
288.962	18.75
289.429	20.45
289.897	25.35
290.364	23.85
290.832	25.25
291.3	17.35
291.767	23.65
292.234	28.15
292.702	16.75
293.169	22.25
293.637	24.75
294.104	23.65
294.571	9.05
295.039	15.15
295.506	20.05
295.973	26.05
296.44	22.65
296.908	22.45
297.375	20.35
297.842	22.65
298.309	21.45
298.776	14.05
299.243	20.35
299.71	16.35
300.177	23.35
300.644	24.75
301.111	23.95
301.578	27.15
302.045	16.95
302.512	26.05
302.979	31.25
303.446	24.85
303.913	20.35
304.379	19.35
304.846	31.35
305.313	25.95
305.78	30.85
306.246	32.25
306.713	30.35
307.18	30.35
307.646	33.45
308.113	30.45
308.579	22.65
309.046	30.25
309.512	31.65
309.979	23.85
310.445	30.25
310.912	32.45
311.378	35.65
311.845	32.15
312.311	31.15
312.777	34.45
313.244	33.15
313.71	35.35
314.176	24.95
314.642	30.65
315.109	33.55
315.575	38.25
316.041	42.25
316.507	33.85
316.973	41.65
317.439	39.85
317.905	37.95
318.371	42.15
318.837	38.75
319.303	39.65
319.769	34.85
320.235	36.25
320.701	46.95
321.167	37.65
321.633	33.15
322.099	38.65
322.564	48.15
323.03	43.55
323.496	39.35
323.962	40.55
324.427	42.85
324.893	39.05
325.359	43.25
325.824	40.15
326.29	43.65
326.755	43.45
327.221	45.45
327.686	47.65
328.152	45.05
328.617	48.45
329.083	53.55
329.548	54.55
330.014	51.95
330.479	39.75
330.944	48.85
331.41	43.65
331.875	53.55
332.34	45.55
332.805	44.95
333.271	47.65
333.736	49.45
334.201	54.75
334.666	56.95
335.131	62.55
335.596	55.55
336.061	54.45
336.526	48.35
336.991	52.85
337.456	56.05
337.921	50.65
338.386	47.85
338.851	51.45
339.316	55.35
339.781	47.95
340.246	61.55
340.711	47.95
341.175	55.45
341.64	47.55
342.105	56.75
342.569	54.05
343.034	58.05
343.499	60.35
343.963	59.15
344.428	63.75
344.893	59.15
345.357	69.85
345.822	65.85
346.286	70.65
346.751	79.15
347.215	76.25
347.679	83.65
348.144	101.65
348.608	86.95
349.073	75.65
349.537	77.35
350.001	79.45
350.465	90.15
350.93	88.75
351.394	85.05
351.858	72.35
352.322	90.45
352.786	84.15
353.25	111.55
353.715	114.95
354.179	97.65
354.643	125.15
355.107	130.35
355.571	111.05
356.035	101.15
356.498	122.15
356.962	122.35
357.426	134.65
357.89	122.75
358.354	94.55
358.818	83.75
359.281	83.45
359.745	78.35
360.209	77.35
360.673	77.95
361.136	84.25
361.6	86.35
362.064	88.05
362.527	86.65
362.991	98.55
363.454	79.75
363.918	85.25
364.381	86.65
364.845	83.25
365.308	89.05
365.772	86.05
366.235	92.45
366.698	87.95
367.162	89.85
367.625	87.95
368.088	87.95
368.552	95.25
369.015	95.35
369.478	98.15
369.941	96.55
370.404	97.45
370.867	106.85
371.331	113.25
371.794	120.85
372.257	116.35
372.72	120.65
373.183	110.95
373.646	108.15
374.109	105.95
374.572	117.35
375.035	107.95
375.497	110.05
375.96	112.85
376.423	109.95
376.886	115.45
377.349	113.55
377.811	108.95
378.274	108.85
378.737	111.35
379.199	109.95
379.662	117.55
380.125	113.95
380.587	122.95
381.05	126.15
381.512	128.65
381.975	139.65
382.437	134.65
382.9	125.35
383.362	128.85
383.825	141.15
384.287	147.45
384.75	140.25
385.212	137.65
385.674	144.55
386.136	137.75
386.599	126.75
387.061	128.25
387.523	130.55
387.985	138.85
388.447	141.15
388.91	143.05
389.372	155.95
389.834	157.85
390.296	149.35
390.758	154.45
391.22	164.55
391.682	208.95
392.144	293.55
392.606	227.65
393.068	167.15
393.529	167.45
393.991	159.95
394.453	143.05
394.915	159.65
395.377	191.65
395.838	211.25
396.3	155.15
396.762	143.05
397.224	141.05
397.685	135.65
398.147	129.85
398.608	129.65
399.07	130.35
399.531	129.45
399.993	145.35
400.454	153.85
400.916	148.95
401.377	147.75
401.839	152.55
402.3	149.75
402.762	169.65
403.223	178.95
403.684	171.05
404.145	166.75
404.607	163.25
405.068	160.65
405.529	178.25
405.99	186.45
406.451	186.15
406.913	170.45
407.374	165.95
407.835	165.75
408.296	171.55
408.757	173.35
409.218	181.45
409.679	180.35
410.14	175.45
410.601	182.65
411.062	183.05
411.522	191.75
411.983	190.95
412.444	175.05
412.905	174.95
413.366	178.05
413.826	189.05
414.287	217.85
414.748	262.35
415.208	248.45
415.669	210.45
416.13	200.75
416.59	201.15
417.051	214.45
417.511	212.25
417.972	238.75
418.432	238.35
418.893	282.85
419.353	253.05
419.814	202.55
420.274	187.25
420.734	178.45
421.195	200.05
421.655	195.85
422.115	194.55
422.576	191.95
423.036	193.25
423.496	204.15
423.956	217.05
424.416	229.15
424.876	265.25
425.336	256.25
425.797	262.55
426.257	250.05
426.717	241.35
427.177	231.25
427.637	221.25
428.097	235.15
428.556	244.25
429.016	266.45
429.476	254.65
429.936	274.15
430.396	272.85
430.856	283.45
431.315	314.75
431.775	340.95
432.235	377.95
432.694	347.45
433.154	363.65
433.614	390.15
434.073	336.85
434.533	282.65
434.993	274.45
435.452	284.55
435.912	300.05
436.371	290.25
436.83	286.65
437.29	267.45
437.749	252.05
438.209	241.55
438.668	269.25
439.127	279.85
439.587	261.95
440.046	249.25
440.505	262.35
440.964	273.35
441.424	318.35
441.883	309.65
442.342	259.85
442.801	224.15
443.26	219.65
443.719	219.75
444.178	220.95
444.637	205.15
445.096	222.25
445.555	216.65
446.014	219.75
446.473	217.45
446.932	230.75
447.391	224.55
447.849	225.25
448.308	212.05
448.767	221.65
449.226	236.15
449.685	240.05
450.143	242.55
450.602	232.75
451.061	224.25
451.519	232.85
451.978	224.05
452.436	230.55
452.895	233.55
453.353	247.45
453.812	240.35
454.27	243.25
454.729	236.55
455.187	236.75
455.646	237.65
456.104	246.05
456.562	254.95
457.021	268.85
457.479	258.05
457.937	262.95
458.395	255.65
458.854	238.35
459.312	250.95
459.77	265.95
460.228	251.25
460.686	239.45
461.144	243.85
461.602	243.75
462.06	240.65
462.518	245.45
462.976	249.75
463.434	254.95
463.892	255.65
464.35	276.75
464.808	287.45
465.266	270.55
465.724	268.95
466.181	270.65
466.639	265.55
467.097	277.15
467.555	295.15
468.012	297.95
468.47	305.55
468.928	323.15
469.385	339.25
469.843	331.95
470.3	350.25
470.758	362.15
471.215	379.95
471.673	401.05
472.13	396.45
472.588	409.15
473.045	362.85
473.503	379.65
473.96	385.95
474.417	392.75
474.875	426.75
475.332	464.15
475.789	465.25
476.246	463.35
476.704	484.75
477.161	503.65
477.618	512.85
478.075	550.55
478.532	610.55
478.989	686.05
479.446	783.85
479.903	759.25
480.36	780.75
480.817	855.65
481.274	957.25
481.731	1053.15
482.188	1143.95
482.645	1286.65
483.102	1395.75
483.558	1533.35
484.015	1580.75
484.472	1557.25
484.929	1508.55
485.385	1459.15
485.842	1415.75
486.299	1347.45
486.755	1282.45
487.212	1081.35
487.668	913.45
488.125	833.65
488.582	769.85
489.038	738.65
489.494	697.15
489.951	662.55
490.407	660.55
490.864	642.65
491.32	623.45
491.776	634.15
492.233	626.75
492.689	604.45
493.145	585.45
493.602	583.15
494.058	602.25
494.514	603.55
494.97	627.35
495.426	636.15
495.882	623.05
496.338	591.85
496.794	608.65
497.251	612.55
497.707	626.15
498.163	629.85
498.618	625.55
499.074	631.45
499.53	666.15
499.986	663.75
500.442	650.65
500.898	621.45
501.354	608.75
501.809	620.85
502.265	621.75
502.721	648.55
503.177	647.05
503.632	650.45
504.088	656.45
504.543	685.85
504.999	692.75
505.455	639.55
505.91	615.15
506.366	618.85
506.821	606.75
507.277	603.45
507.732	614.25
508.187	608.05
508.643	623.05
509.098	622.35
509.553	632.65
510.009	654.05
510.464	646.85
510.919	672.05
511.375	673.15
511.83	684.55
512.285	707.35
512.74	736.65
513.195	767.25
513.65	756.25
514.105	753.15
514.56	749.85
515.015	770.55
515.47	790.95
515.925	775.95
516.38	763.45
516.835	771.75
517.29	772.55
517.745	761.45
518.2	747.95
518.655	733.35
519.109	722.95
519.564	720.95
520.019	709.65
520.474	709.65
520.928	704.65
521.383	705.35
521.838	690.15
522.292	690.25
522.747	688.65
523.201	677.45
523.656	673.55
524.11	673.85
524.565	675.35
525.019	669.45
525.474	678.85
525.928	683.35
526.382	677.05
526.837	681.85
527.291	679.15
527.745	680.95
528.2	681.15
528.654	673.75
529.108	672.25
529.562	669.95
530.016	664.85
530.47	662.85
530.925	670.95
531.379	678.95
531.833	688.55
532.287	675.65
532.741	681.35
533.195	683.35
533.649	694.85
534.103	702.15
534.556	688.75
535.01	695.15
535.464	688.95
535.918	701.25
536.372	696.45
536.826	694.95
537.279	673.15
537.733	692.35
538.187	689.65
538.64	693.75
539.094	705.55
539.548	705.75
540.001	705.75
540.455	700.85
540.908	712.55
541.362	706.05
541.815	712.15
542.269	736.05
542.722	742.15
543.175	748.15
543.629	745.35
544.082	741.35
544.536	767.15
544.989	755.25
545.442	764.55
545.895	763.15
546.349	762.75
546.802	755.25
547.255	770.85
547.708	766.65
548.161	791.25
548.614	789.35
549.067	792.25
549.52	782.35
549.973	775.55
550.426	779.45
550.879	760.75
551.332	766.15
551.785	768.25
552.238	770.35
552.691	789.35
553.144	799.45
553.596	811.15
554.049	828.35
554.502	855.35
554.955	875.65
555.407	873.35
555.86	862.85
556.313	853.35
556.765	850.55
557.218	846.25
557.67	850.85
558.123	833.95
558.576	846.65
559.028	843.35
559.48	848.75
559.933	843.95
560.385	804.65
560.838	770.55
561.29	750.95
561.742	748.05
562.195	734.35
562.647	724.15
563.099	740.55
563.551	735.85
564.004	743.45
564.456	733.65
564.908	734.75
565.36	710.65
565.812	703.95
566.264	700.15
566.716	688.05
567.168	677.55
567.62	691.75
568.072	673.35
568.524	654.65
568.976	647.95
569.428	641.35
569.88	645.95
570.332	652.95
570.784	641.05
571.235	646.05
571.687	656.05
572.139	668.15
572.59	674.25
573.042	671.65
573.494	667.45
573.945	667.25
574.397	652.05
574.849	659.65
575.3	651.35
575.752	647.75
576.203	647.35
576.655	655.95
577.106	628.05
577.557	617.15
578.009	637.35
578.46	623.85
578.912	620.55
579.363	635.85
579.814	640.15
580.265	630.65
580.717	627.95
581.168	630.75
581.619	643.25
582.07	651.25
582.521	638.25
582.972	630.65
583.423	640.45
583.875	645.65
584.326	669.85
584.777	708.05
585.227	783.95
585.678	863.65
586.129	943.95
586.58	1018.15
587.031	1096.95
587.482	1255.85
587.933	1430.75
588.384	1235.75
588.834	920.05
589.285	759.95
589.736	737.75
590.186	726.25
590.637	716.55
591.088	697.65
591.538	689.45
591.989	685.15
592.439	684.05
592.89	669.25
593.34	667.25
593.791	667.45
594.241	658.35
594.692	666.35
595.142	662.55
595.593	646.45
596.043	663.65
596.493	667.05
596.943	667.55
597.394	679.65
597.844	663.85
598.294	685.15
598.744	700.55
599.195	719.65
599.645	763.55
600.095	792.35
600.545	839.35
600.995	890.65
601.445	954.55
601.895	1017.35
602.345	1046.95
602.795	1037.55
603.245	993.35
603.695	942.95
604.145	906.35
604.594	845.45
605.044	793.05
605.494	742.95
605.944	701.55
606.393	685.45
606.843	666.55
607.293	686.05
607.743	678.65
608.192	688.15
608.642	703.95
609.091	706.55
609.541	711.65
609.99	717.45
610.44	715.35
610.889	676.75
611.339	659.05
611.788	638.65
612.238	647.05
612.687	666.75
613.136	669.25
613.586	686.25
614.035	686.05
614.484	706.75
614.933	701.85
615.383	695.45
615.832	689.95
616.281	665.95
616.73	637.55
617.179	618.15
617.628	617.15
618.077	589.35
618.526	569.25
618.975	564.75
619.424	571.65
619.873	566.55
620.322	572.15
620.771	558.95
621.22	553.35
621.669	549.65
622.118	537.45
622.567	541.05
623.015	518.35
623.464	519.35
623.913	526.05
624.361	503.55
624.81	513.65
625.259	507.45
625.707	511.85
626.156	512.65
626.604	523.45
627.053	520.45
627.501	515.25
627.95	519.95
628.398	531.35
628.847	527.25
629.295	525.55
629.744	522.85
630.192	523.65
630.64	521.05
631.089	520.35
631.537	522.55
631.985	531.55
632.433	551.85
632.881	555.35
633.33	604.85
633.778	588.75
634.226	504.45
634.674	518.15
635.122	524.35
635.57	542.15
636.018	568.55
636.466	535.65
636.914	509.05
637.362	527.65
637.81	528.55
638.258	528.15
638.705	526.85
639.153	555.35
639.601	556.45
640.049	586.75
640.497	614.95
640.944	630.15
641.392	583.55
641.84	561.35
642.287	540.95
642.735	513.05
643.182	525.05
643.63	520.25
644.078	522.85
644.525	540.55
644.973	554.05
645.42	545.85
645.867	560.85
646.315	583.95
646.762	598.25
647.21	626.55
647.657	644.35
648.104	682.05
648.551	707.35
648.999	757.45
649.446	833.65
649.893	914.35
650.34	1049.35
650.787	1255.95
651.234	1555.55
651.682	2043.65
652.129	2769.25
652.576	4023.45
653.023	5921.65
653.47	8169.45
653.917	10326.25
654.363	12008.55
654.81	13446.75
655.257	12790.55
655.704	8342.45
656.151	4885.95
656.598	3167.35
657.044	2234.25
657.491	1721.45
657.938	1372.65
658.385	1136.65
658.831	994.55
659.278	884.45
659.724	780.15
660.171	724.65
660.618	664.25
661.064	632.05
661.511	602.35
661.957	596.85
662.404	593.55
662.85	587.35
663.296	564.35
663.743	512.25
664.189	493.25
664.635	478.65
665.082	479.85
665.528	476.65
665.974	474.85
666.42	456.15
666.867	462.95
667.313	445.55
667.759	431.25
668.205	433.55
668.651	437.05
669.097	441.55
669.543	461.55
669.989	421.75
670.435	403.55
670.881	401.85
671.327	400.05
671.773	419.95
672.219	441.35
672.665	489.55
673.11	512.45
673.556	574.45
674.002	606.25
674.448	595.85
674.893	500.15
675.339	427.45
675.785	391.65
676.23	379.45
676.676	355.65
677.122	336.15
677.567	342.85
678.013	324.25
678.458	320.25
678.904	319.45
679.349	303.65
679.794	320.55
680.24	320.55
680.685	308.65
681.131	304.95
681.576	319.65
682.021	316.15
682.466	312.85
682.912	310.95
683.357	311.25
683.802	344.35
684.247	364.75
684.692	407.25
685.137	445.15
685.583	474.85
686.028	502.15
686.473	462.85
686.918	402.55
687.363	367.45
687.807	350.05
688.252	332.15
688.697	316.95
689.142	291.75
689.587	294.65
690.032	284.25
690.477	303.45
690.921	314.05
691.366	343.15
691.811	348.95
692.255	387.55
692.7	408.75
693.145	441.65
693.589	605.45
694.034	977.35
694.478	1352.65
694.923	1562.35
695.367	2062.35
695.812	1072.95
696.256	437.55
696.701	333.15
697.145	304.95
697.59	295.75
698.034	294.15
698.478	294.85
698.922	287.55
699.367	294.05
699.811	305.45
700.255	316.15
700.699	343.65
701.143	382.05
701.588	431.95
702.032	462.15
702.476	461.15
702.92	432.45
703.364	433.75
703.808	558.55
704.252	907.85
704.696	1278.45
705.14	1494.55
705.584	1927.35
706.027	953.45
706.471	466.85
706.915	344.85
707.359	319.95
707.803	289.15
708.246	272.75
708.69	279.65
709.134	281.05
709.577	282.65
710.021	286.65
710.465	272.75
710.908	262.75
711.352	265.65
711.795	273.75
712.239	307.25
712.682	342.15
713.126	369.85
713.569	419.85
714.012	333.35
714.456	290.65
714.899	267.35
715.342	243.15
715.786	226.85
716.229	231.45
716.672	235.35
717.115	220.85
717.558	215.45
718.002	224.35
718.445	234.75
718.888	249.95
719.331	265.05
719.774	270.95
720.217	277.55
720.66	254.05
721.103	233.75
721.546	228.25
721.989	220.65
722.432	211.05
722.874	205.95
723.317	197.75
723.76	205.85
724.203	227.15
724.645	276.15
725.088	376.85
725.531	502.95
725.974	573.85
726.416	488.15
726.859	271.85
727.301	216.45
727.744	215.75
728.187	208.65
728.629	215.95
729.071	219.65
729.514	239.35
729.956	245.75
730.399	258.85
730.841	255.65
731.283	244.35
731.726	235.95
732.168	232.15
732.61	230.95
733.053	253.75
733.495	275.35
733.937	306.45
734.379	351.55
734.821	376.75
735.263	470.95
735.705	719.95
736.148	1363.25
736.59	2267.85
737.032	2760.85
737.474	2239.15
737.916	714.95
738.357	374.55
738.799	288.05
739.241	265.95
739.683	254.65
740.125	255.65
740.567	266.25
741.008	287.05
741.45	276.15
741.892	275.65
742.334	309.25
742.775	326.25
743.217	303.65
743.658	237.95
744.1	225.65
744.542	234.35
744.983	277.85
745.425	299.85
745.866	299.15
746.307	250.25
746.749	252.45
747.19	289.65
747.632	395.35
748.073	752.75
748.514	1605.65
748.956	2532.95
749.397	3152.35
749.838	2632.35
750.279	2670.15
750.72	1346.35
751.162	491.75
751.603	285.55
752.044	229.75
752.485	193.95
752.926	187.15
753.367	172.35
753.808	171.55
754.249	172.15
754.69	166.75
755.131	161.05
755.572	160.35
756.013	159.05
756.453	163.45
756.894	171.15
757.335	168.95
757.776	179.25
758.216	182.15
758.657	172.05
759.098	174.25
759.538	196.55
759.979	229.25
760.42	319.05
760.86	605.35
761.301	1551.35
761.741	3837.75
762.182	5844.75
762.622	4115.05
763.063	1176.05
763.503	485.15
763.943	307.15
764.384	306.45
764.824	356.85
765.264	403.65
765.705	276.95
766.145	184.05
766.585	164.45
767.025	164.55
767.465	164.75
767.906	218.25
768.346	278.95
768.786	308.35
769.226	236.35
769.666	273.95
770.106	527.05
770.546	1333.85
770.986	2360.45
771.426	2160.45
771.866	710.25
772.306	293.05
772.745	190.95
773.185	157.95
773.625	151.45
774.065	149.35
774.505	175.85
774.944	270.15
775.384	597.25
775.824	1112.15
776.263	1115.75
776.703	464.65
777.142	197.95
777.582	141.75
778.021	124.15
778.461	125.25
778.9	127.55
779.34	119.95
779.779	105.35
780.219	95.35
780.658	96.85
781.097	100.55
781.537	107.35
781.976	95.65
782.415	94.05
782.855	93.75
783.294	91.95
783.733	96.75
784.172	101.75
784.611	94.85
785.05	93.25
785.489	106.15
785.928	101.85
786.367	108.15
786.806	101.75
787.245	118.15
787.684	118.15
788.123	134.85
788.562	127.55
789.001	115.45
789.44	110.75
789.879	110.35
790.317	110.15
790.756	118.65
791.195	121.95
791.634	121.85
792.072	179.15
792.511	314.85
792.95	855.05
793.388	1906.75
793.827	1762.55
794.265	603.15
794.704	256.85
795.142	171.85
795.581	137.75
796.019	122.85
796.458	119.55
796.896	106.75
797.334	116.35
797.773	135.75
798.211	184.65
798.649	377.15
799.087	888.95
799.526	1405.15
799.964	1759.75
800.402	1827.25
800.84	678.85
801.278	268.15
801.716	165.75
802.154	131.75
802.592	131.15
803.03	115.85
803.468	128.15
803.906	129.05
804.344	138.25
804.782	124.05
805.22	113.35
805.658	113.35
806.096	133.15
806.533	142.65
806.971	158.55
807.409	191.35
807.847	268.25
808.284	566.75
808.722	1598.55
809.16	2928.85
809.597	2727.15
810.035	4781.35
810.472	5306.65
810.91	1880.25
811.347	702.55
811.785	360.05
812.222	222.25
812.66	175.15
813.097	150.75
813.535	124.15
813.972	114.65
814.409	106.85
814.846	98.85
815.284	99.85
815.721	102.05
816.158	95.95
816.595	100.25
817.032	160.35
817.47	180.45
817.907	149.05
818.344	127.25
818.781	107.15
819.218	88.15
819.655	107.25
820.092	161.05
820.529	197.05
820.966	160.25
821.403	120.45
821.839	99.55
822.276	91.85
822.713	105.65
823.15	114.65
823.587	102.65
824.023	130.35
824.46	257.55
824.897	777.25
825.333	1211.35
825.77	524.35
826.206	205.15
826.643	120.15
827.08	89.45
827.516	72.85
827.953	72.15
828.389	68.55
828.825	70.45
829.262	61.75
829.698	53.75
830.135	58.15
830.571	57.25
831.007	60.25
831.443	58.25
831.88	59.25
832.316	52.45
832.752	61.35
833.188	54.25
833.624	58.75
834.06	55.95
834.497	58.75
834.933	67.55
835.369	65.65
835.805	60.85
836.241	63.55
836.677	68.45
837.112	76.95
837.548	86.15
837.984	115.95
838.42	174.75
838.856	424.95
839.292	1312.35
839.727	2085.55
840.163	959.95
840.599	792.45
841.034	1800.55
841.47	1931.55
841.906	698.95
842.341	300.65
842.777	210.35
843.212	283.15
843.648	289.65
844.083	139.55
844.519	89.95
844.954	62.55
845.39	56.65
845.825	44.15
846.261	53.45
846.696	52.85
847.131	46.65
847.566	55.15
848.002	54.25
848.437	51.85
848.872	47.65
849.307	56.55
849.742	76.55
850.177	159.25
850.613	486.95
851.048	788.55
851.483	338.85
851.918	134.95
852.353	76.55
852.788	55.65
853.223	54.95
853.657	43.75
854.092	41.15
854.527	39.95
854.962	41.75
855.397	39.55
855.832	43.05
856.266	31.75
856.701	36.25
857.136	36.05
857.57	37.65
858.005	45.25
858.44	47.15
858.874	38.75
859.309	48.45
859.743	33.85
860.178	40.65
860.612	36.85
861.047	43.05
861.481	52.85
861.915	63.35
862.35	45.25
862.784	30.45
863.218	36.85
863.653	28.35
864.087	38.65
864.521	45.15
864.955	62.95
865.39	135.85
865.824	155.15
866.258	103.35
866.692	142.15
867.126	159.75
867.56	93.25
867.994	48.65
868.428	35.65
868.862	40.95
869.296	47.15
869.73	52.25
870.164	44.15
870.598	46.85
871.031	39.25
871.465	22.35
871.899	22.55
872.333	24.65
872.766	24.45
873.2	21.25
873.634	30.85
874.067	21.35
874.501	24.15
874.935	28.95
875.368	32.65
875.802	23.65
876.235	18.35
876.669	23.35
877.102	20.65
877.535	28.15
877.969	19.05
878.402	25.15
878.836	16.35
879.269	20.85
879.702	21.45
880.135	19.25
880.569	22.85
881.002	25.15
881.435	21.75
881.868	15.35
882.301	16.65
882.734	11.95
883.167	20.45
883.601	21.85
884.034	22.15
884.467	12.75
884.899	18.25
885.332	10.95
885.765	12.25
886.198	19.25
886.631	17.75
887.064	20.25
887.497	25.45
887.929	22.05
888.362	11.65
888.795	11.85
889.228	17.95
889.66	19.95
890.093	21.35
890.526	15.95
890.958	20.05
891.391	16.75
891.823	19.45
892.256	13.85
892.688	11.55
893.121	12.05
893.553	14.15
893.985	21.95
894.418	11.35
894.85	9.55
895.282	16.45
895.715	17.15
896.147	17.05
896.579	17.05
897.011	11.65
897.444	10.95
897.876	17.25
898.308	13.85
898.74	15.15
899.172	8.75
899.604	25.55
900.036	18.55
900.468	15.05
900.9	13.45
901.332	14.95
901.764	8.85
902.196	20.45
902.628	18.25
903.06	9.85
903.491	29.35
903.923	20.55
904.355	16.75
904.787	21.55
905.218	19.15
905.65	21.05
906.082	8.45
906.513	15.85
906.945	14.55
907.376	17.75
907.808	19.15
908.239	23.75
908.671	18.55
909.102	19.15
909.534	22.65
909.965	45.55
910.397	87.15
910.828	277.75
911.259	427.55
911.691	193.85
912.122	88.85
912.553	52.35
912.984	30.55
913.415	24.55
913.847	22.75
914.278	20.95
914.709	11.85
915.14	15.55
915.571	19.25
916.002	12.15
916.433	20.25
916.864	18.15
917.295	12.35
917.726	15.75
918.157	13.55
918.587	22.95
919.018	21.95
919.449	20.65
919.88	24.55
920.311	24.95
920.741	42.25
921.172	148.75
921.603	130.55
922.033	63.85
922.464	39.45
922.895	24.15
923.325	23.85
923.756	12.85
924.186	14.85
924.617	26.85
925.047	42.65
925.478	50.05
925.908	42.35
926.338	20.05
926.769	13.85
927.199	20.35
927.629	15.45
928.06	15.45
928.49	11.65
928.92	16.55
929.35	9.45
929.78	12.75
930.21	10.65
930.641	7.15
931.071	5.45
931.501	4.15
931.931	10.95
932.361	8.65
932.791	7.05
933.221	8.65
933.651	4.05
934.08	13.15
934.51	28.55
934.94	5.85
935.37	8.85
935.8	9.65
936.229	9.35
936.659	9.45
937.089	-2.55
937.519	17.75
937.948	24.15
938.378	18.65
938.807	1.55
939.237	6.05
939.666	14.65
940.096	-0.55
940.525	-0.45
940.955	5.55
941.384	3.25
941.814	-8.95
942.243	4.75
942.672	6.65
943.102	1.15
943.531	2.85
943.96	1.75
944.39	-3.05
944.819	-0.25
945.248	1.75
945.677	-1.25
946.106	5.65
946.535	10.15
946.964	3.55
947.393	4.35
947.822	0.95
948.251	-1.35
948.68	14.15
949.109	3.95
949.538	3.75
949.967	0.55
950.396	-2.55
950.825	3.55
951.254	5.75
951.682	-3.25
952.111	3.85
952.54	4.85
952.969	3.55
953.397	1.35
953.826	0.65
954.254	-4.65
954.683	1.95
955.112	2.65
955.54	5.95
955.969	0.05
956.397	5.75
956.826	-0.25
957.254	6.75
957.682	4.95
958.111	7.95
958.539	-2.25
958.967	0.55
959.396	2.25
959.824	6.15
960.252	8.15
960.68	-4.85
961.109	1.05
961.537	-4.35
961.965	0.75
962.393	2.05
962.821	-1.65
963.249	3.75
963.677	1.75
964.105	-0.05
964.533	35.15
964.961	41.25
965.389	18.75
965.817	0.95
966.245	7.65
966.672	-3.35
967.1	-1.75
967.528	1.85
967.956	0.75
968.383	4.25
968.811	-0.25
969.239	-4.45
969.666	-3.65
970.094	1.15
970.522	2.95
970.949	-5.05
971.377	-8.05
971.804	-0.95
972.232	0.85
972.659	1.55
973.087	2.55
973.514	0.55
973.941	-2.55
974.369	4.05
974.796	1.75
975.223	4.15
975.651	0.35
976.078	5.45
976.505	-3.65
976.932	1.75
977.359	10.35
977.786	15.55
978.214	2.25
978.641	-4.75
979.068	-4.45
979.495	-6.85
979.922	0.65
980.349	2.65
980.776	3.55
981.202	-2.35
981.629	10.05
982.056	-0.25
982.483	2.05
982.91	4.05
983.337	-8.75
983.763	1.95
984.19	-2.65
984.617	-2.45
985.043	-4.25
985.47	-5.05
985.897	-4.55
986.323	-8.45
986.75	3.25
987.176	-1.15
987.603	-2.05
988.029	0.15
988.456	-3.25
988.882	6.55
989.308	-6.25
989.735	-3.25
990.161	2.95
990.587	-6.65
991.014	-3.45
991.44	7.95
991.866	-0.35
992.292	0.75
992.719	4.25
993.145	7.75
993.571	-6.65
993.997	-3.35
994.423	-2.15
994.849	-8.25
995.275	1.15
995.701	0.35
996.127	3.25
996.553	1.65
996.979	2.15
997.405	0.95
997.83	-7.25
998.256	-1.65
998.682	-3.15
999.108	-9.05
999.534	1.75
999.959	1.35
1000.385	-0.35
1000.811	2.05
1001.236	-8.65
1001.662	-5.55
1002.087	-12.45
1002.513	0.35
1002.938	5.15
1003.364	1.25
1003.789	-1.05
1004.215	2.15
1004.64	-7.65
1005.066	7.25
1005.491	4.65
1005.916	-4.45
1006.342	-1.05
1006.767	-6.55
1007.192	7.35
1007.617	-3.85
1008.042	-0.55
1008.468	-11.55
1008.893	-9.05
1009.318	-5.75
1009.743	-8.45
1010.168	1.55
1010.593	0.15
1011.018	-4.65
1011.443	2.05
1011.868	3.85
1012.293	-3.35
1012.718	-4.85
1013.143	-1.65
1013.567	0.35
1013.992	-0.85
1014.417	-10.45
1014.842	7.45
1015.267	-11.35
1015.691	-0.55
1016.116	0.55
1016.541	-1.05
1016.965	2.25
1017.39	-2.65
1017.814	1.05
1018.239	2.35
1018.663	-6.45
1019.088	-6.85
1019.512	-2.15
1019.937	0.85
1020.361	-1.35
1020.785	-5.85
1021.21	-6.05
1021.634	-3.75
1022.058	-5.65
1022.483	4.35
1022.907	-1.65
1023.331	-2.65
1023.755	-0.75
1024.179	-0.85
1024.604	-10.15
1025.028	-3.85
1025.452	-0.55
1025.876	-0.65
1026.3	4.25
1026.724	-12.35
1027.148	3.95
1027.572	-14.45
1027.996	2.65
1028.42	-0.75
1028.843	-1.95
1029.267	-3.55
1029.691	-2.75
1030.115	-7.95
1030.539	-10.15
1030.962	-6.25
1031.386	-10.75
1031.81	0.55
1032.233	-0.15
1032.657	-0.75
1033.08	2.75
1033.504	-3.05
1033.927	-0.65
1034.351	3.75
1034.774	-0.95
1035.198	-4.35
1035.621	-2.65
1036.045	-7.95
1036.468	1.05
1036.891	-10.25
1037.315	-7.95
1037.738	-9.55
1038.161	-0.85
1038.584	-6.25
1039.008	-1.95
1039.431	-6.15
1039.854	-10.05
1040.277	-9.65
1040.7	-10.55
1041.123	1.35
1041.546	-5.25
1041.969	-2.35
1042.392	-3.15
1042.815	-0.75
1043.238	0.75
1043.661	4.35
1044.084	-2.95
1044.507	-2.85
1044.93	-10.35
1045.352	-5.95
1045.775	-2.35
1046.198	2.35
1046.621	-0.85
1047.043	2.15
1047.466	8.65
1047.889	-2.45
1048.311	-4.85
1048.734	0.65
1049.156	-3.65
1049.579	-0.55
1050.001	5.15
1050.424	-3.95
1050.846	-5.55
1051.269	-3.95
1051.691	-9.15
1052.113	-4.55
1052.536	-0.45
1052.958	-0.65
1053.38	-4.35
1053.802	-6.25
1054.225	0.85
1054.647	-4.85
1055.069	-4.75
1055.491	4.35
1055.913	-9.75
1056.335	-2.25
1056.757	-5.25
1057.179	-9.85
1057.601	-6.35
1058.023	-3.25
1058.445	-5.65
1058.867	-6.35
1059.289	-1.55
1059.711	-2.05
1060.133	-0.15
1060.555	-0.55
1060.976	-2.95
1061.398	-6.85
1061.82	-3.25
1062.241	-6.25
1062.663	-6.55
1063.085	-3.45
1063.506	1.25
1063.928	-1.25
1064.35	-2.05
1064.771	-9.45
1065.193	4.15
1065.614	-8.55
1066.035	0.75
1066.457	-1.55
1066.878	1.35
1067.3	-6.55
1067.721	0.25
1068.142	-3.45
1068.564	-4.25
1068.985	-3.15
1069.406	-4.95
1069.827	-4.05
1070.248	0.85
1070.67	0.45
1071.091	-6.55
1071.512	-5.05
1071.933	-5.35
1072.354	-4.45
1072.775	-4.05
1073.196	-8.45
1073.617	-1.15
1074.038	-4.45
1074.459	1.35
1074.88	-8.55
1075.3	1.75
1075.721	-12.15
1076.142	-3.45
1076.563	-3.15
1076.983	-10.65
1077.404	-3.05
1077.825	-4.75
1078.246	-0.95
1078.666	-5.45
1079.087	-6.55
1079.507	-7.45
1079.928	3.55
1080.348	-0.45
1080.769	-6.65
1081.189	2.75
1081.61	-4.05
1082.03	0.25
1082.451	-4.65
1082.871	-0.65
1083.291	-3.55
1083.711	-11.05
1084.132	-5.35
1084.552	0.45
1084.972	1.45
1085.392	-11.35
1085.813	-13.45
1086.233	-7.15
1086.653	-2.85
1087.073	-1.35
1087.493	-8.55
1087.913	-7.95
1088.333	-6.75
1088.753	-0.75
1089.173	6.15
1089.593	-1.65
1090.013	0.55
1090.433	1.45
1090.852	-9.95
1091.272	-3.05
1091.692	1.35
1092.112	-1.85
1092.531	-4.15
1092.951	-16.25
1093.371	0.65
1093.79	-1.55
1094.21	-3.85
1094.63	-2.65
1095.049	-6.05
1095.469	-5.85
1095.888	-2.45
1096.308	-3.55
1096.727	-1.35
1097.146	-5.95
1097.566	1.45
1097.985	-5.05
1098.405	-0.45
1098.824	-4.55
1099.243	-4.75
1099.662	-9.55
1100.082	-8.45
1100.501	-4.05
1100.92	-1.95
1101.339	-5.35
1101.758	-0.25
