Data from 20171114-ORNL-Ar_H_NY_Subt18_08-06-14-183.txt Node
Date: Tue Nov 14 08:06:14 EST 2017
User: Ender
Spectrometer: HR+D1039
Trigger mode: 0
Integration Time (sec): 2.730000E-2
Scans to average: 10
Electric dark correction enabled: true
Nonlinearity correction enabled: false
Boxcar width: 0
XAxis mode: Wavelengths
Number of Pixels in Spectrum: 2048
>>>>>Begin Spectral Data<<<<<
187.836	-8.46
188.309	-8.46
188.782	-8.46
189.255	2.74
189.728	1.64
190.201	-0.16
190.674	1.74
191.147	7.04
191.619	-3.96
192.092	0.54
192.565	5.64
193.038	1.84
193.511	-1.56
193.984	2.34
194.456	-6.46
194.929	-3.46
195.402	2.74
195.874	-2.26
196.347	2.34
196.82	-5.36
197.292	8.14
197.765	-1.16
198.237	-5.06
198.71	5.24
199.182	1.54
199.655	2.64
200.127	11.54
200.6	3.34
201.072	1.14
201.544	-2.46
202.017	-3.06
202.489	6.04
202.961	-2.36
203.433	-2.46
203.906	-1.06
204.378	-5.86
204.85	-3.16
205.322	-4.56
205.794	-1.26
206.266	-6.06
206.739	-4.56
207.211	6.54
207.683	-4.46
208.155	-8.46
208.627	-8.16
209.099	-4.06
209.57	-9.16
210.042	-4.56
210.514	-0.76
210.986	-5.56
211.458	-4.66
211.93	-1.66
212.402	3.14
212.873	-2.66
213.345	-8.76
213.817	-9.96
214.288	0.54
214.76	-10.46
215.232	-0.06
215.703	-7.46
216.175	-1.36
216.646	-3.66
217.118	-3.66
217.589	-7.16
218.061	5.24
218.532	-1.06
219.004	0.54
219.475	-2.56
219.946	-5.86
220.418	-1.76
220.889	-1.66
221.36	-3.56
221.832	-2.66
222.303	-5.16
222.774	5.74
223.245	-11.96
223.717	-4.06
224.188	-3.46
224.659	-9.86
225.13	-3.06
225.601	-3.36
226.072	3.54
226.543	3.64
227.014	2.04
227.485	3.44
227.956	-2.66
228.427	2.64
228.898	3.44
229.369	6.54
229.839	-2.46
230.31	-0.86
230.781	-0.86
231.252	-5.26
231.722	-5.06
232.193	-3.46
232.664	-0.66
233.135	2.04
233.605	-2.66
234.076	-2.46
234.546	-1.96
235.017	2.74
235.487	3.34
235.958	-0.76
236.428	-7.46
236.899	7.14
237.369	2.94
237.84	-0.66
238.31	9.04
238.78	7.74
239.251	1.64
239.721	2.44
240.191	0.54
240.662	-4.36
241.132	7.24
241.602	-6.06
242.072	2.34
242.542	10.94
243.013	-2.66
243.483	7.44
243.953	8.54
244.423	4.54
244.893	1.84
245.363	4.04
245.833	-5.26
246.303	-0.26
246.773	7.54
247.243	1.04
247.712	-0.26
248.182	5.74
248.652	5.24
249.122	0.44
249.592	15.04
250.061	19.94
250.531	29.54
251.001	10.04
251.471	22.74
251.94	21.14
252.41	8.44
252.879	3.84
253.349	15.94
253.818	6.64
254.288	8.04
254.757	2.84
255.227	2.24
255.696	3.34
256.166	2.74
256.635	7.64
257.105	6.14
257.574	1.84
258.043	10.24
258.513	8.84
258.982	15.44
259.451	12.14
259.92	18.94
260.389	12.04
260.859	17.34
261.328	13.14
261.797	18.64
262.266	8.94
262.735	12.54
263.204	2.14
263.673	7.54
264.142	3.64
264.611	-3.26
265.08	6.54
265.549	8.04
266.018	10.44
266.487	2.04
266.955	0.34
267.424	2.44
267.893	14.04
268.362	5.84
268.83	5.94
269.299	11.84
269.768	8.54
270.236	9.64
270.705	0.94
271.174	8.14
271.642	10.04
272.111	6.84
272.579	18.64
273.048	28.64
273.516	28.14
273.985	26.64
274.453	25.14
274.922	27.34
275.39	11.84
275.858	9.04
276.327	16.94
276.795	29.54
277.263	10.84
277.731	29.84
278.2	59.74
278.668	60.04
279.136	50.64
279.604	23.64
280.072	16.04
280.54	11.94
281.008	12.04
281.477	18.94
281.945	20.14
282.413	14.54
282.881	15.04
283.348	8.84
283.816	15.54
284.284	14.24
284.752	22.84
285.22	16.34
285.688	21.54
286.156	17.94
286.623	44.54
287.091	51.44
287.559	33.24
288.026	21.24
288.494	20.14
288.962	9.54
289.429	12.84
289.897	22.74
290.364	13.04
290.832	15.24
291.3	15.54
291.767	17.74
292.234	17.94
292.702	16.64
293.169	19.64
293.637	21.14
294.104	22.84
294.571	11.84
295.039	15.84
295.506	17.84
295.973	23.24
296.44	17.04
296.908	23.94
297.375	19.34
297.842	25.94
298.309	21.24
298.776	19.44
299.243	20.54
299.71	20.04
300.177	23.14
300.644	25.84
301.111	27.94
301.578	21.54
302.045	20.84
302.512	23.44
302.979	29.34
303.446	24.24
303.913	23.64
304.379	21.44
304.846	29.54
305.313	26.34
305.78	22.24
306.246	29.04
306.713	28.24
307.18	27.54
307.646	28.44
308.113	33.94
308.579	23.34
309.046	27.64
309.512	26.34
309.979	20.64
310.445	31.64
310.912	24.64
311.378	35.14
311.845	34.04
312.311	31.14
312.777	32.74
313.244	36.74
313.71	37.74
314.176	34.14
314.642	38.54
315.109	32.54
315.575	38.34
316.041	40.34
316.507	33.54
316.973	41.64
317.439	36.54
317.905	38.54
318.371	42.34
318.837	34.54
319.303	42.74
319.769	34.34
320.235	36.94
320.701	37.44
321.167	36.94
321.633	39.64
322.099	40.94
322.564	42.64
323.03	43.94
323.496	43.24
323.962	44.74
324.427	43.44
324.893	43.74
325.359	48.34
325.824	43.64
326.29	38.84
326.755	41.34
327.221	42.04
327.686	38.24
328.152	57.34
328.617	45.74
329.083	51.44
329.548	49.74
330.014	50.44
330.479	41.04
330.944	45.14
331.41	45.04
331.875	49.34
332.34	47.44
332.805	43.94
333.271	51.64
333.736	51.84
334.201	54.44
334.666	54.24
335.131	57.04
335.596	57.54
336.061	49.04
336.526	48.04
336.991	51.64
337.456	64.64
337.921	49.24
338.386	46.54
338.851	48.24
339.316	52.84
339.781	45.84
340.246	52.94
340.711	50.84
341.175	53.24
341.64	48.84
342.105	57.74
342.569	59.84
343.034	65.84
343.499	57.04
343.963	61.24
344.428	65.04
344.893	71.84
345.357	71.74
345.822	66.44
346.286	75.74
346.751	80.94
347.215	67.34
347.679	76.04
348.144	103.04
348.608	84.44
349.073	69.74
349.537	77.24
350.001	80.84
350.465	91.24
350.93	87.54
351.394	85.74
351.858	82.44
352.322	95.64
352.786	87.54
353.25	110.94
353.715	114.34
354.179	109.24
354.643	123.34
355.107	130.44
355.571	107.14
356.035	112.64
356.498	121.54
356.962	134.34
357.426	137.94
357.89	126.04
358.354	98.34
358.818	84.24
359.281	79.24
359.745	85.24
360.209	80.54
360.673	86.34
361.136	82.84
361.6	89.14
362.064	86.54
362.527	87.94
362.991	99.04
363.454	86.84
363.918	83.54
364.381	82.74
364.845	83.14
365.308	92.24
365.772	90.44
366.235	89.54
366.698	93.34
367.162	95.74
367.625	91.44
368.088	85.04
368.552	95.24
369.015	95.94
369.478	99.34
369.941	108.74
370.404	98.14
370.867	118.24
371.331	113.64
371.794	119.14
372.257	119.64
372.72	127.44
373.183	120.44
373.646	104.14
374.109	110.34
374.572	118.24
375.035	116.44
375.497	118.84
375.96	113.74
376.423	108.54
376.886	119.74
377.349	116.84
377.811	112.54
378.274	113.34
378.737	112.94
379.199	122.84
379.662	120.64
380.125	125.34
380.587	124.84
381.05	131.44
381.512	130.44
381.975	135.54
382.437	138.64
382.9	134.94
383.362	149.44
383.825	152.64
384.287	157.74
384.75	143.34
385.212	147.04
385.674	148.34
386.136	146.34
386.599	134.54
387.061	141.94
387.523	134.54
387.985	146.04
388.447	154.74
388.91	141.44
389.372	161.74
389.834	162.14
390.296	149.44
390.758	166.74
391.22	172.04
391.682	218.04
392.144	297.04
392.606	235.24
393.068	173.04
393.529	180.44
393.991	164.54
394.453	151.44
394.915	167.94
395.377	196.04
395.838	220.14
396.3	166.84
396.762	153.44
397.224	139.54
397.685	140.54
398.147	136.04
398.608	141.94
399.07	138.14
399.531	141.64
399.993	150.84
400.454	163.34
400.916	152.34
401.377	155.34
401.839	162.94
402.3	164.94
402.762	176.14
403.223	195.44
403.684	180.64
404.145	169.74
404.607	168.34
405.068	171.44
405.529	178.94
405.99	200.54
406.451	185.04
406.913	181.14
407.374	170.84
407.835	172.64
408.296	177.44
408.757	181.74
409.218	201.64
409.679	194.84
410.14	192.34
410.601	186.04
411.062	195.54
411.522	199.64
411.983	201.54
412.444	187.64
412.905	192.64
413.366	196.14
413.826	207.54
414.287	226.34
414.748	267.64
415.208	263.64
415.669	228.84
416.13	218.24
416.59	210.84
417.051	228.34
417.511	225.64
417.972	245.14
418.432	272.44
418.893	302.74
419.353	264.44
419.814	208.64
420.274	191.04
420.734	197.34
421.195	210.34
421.655	200.34
422.115	201.44
422.576	207.54
423.036	212.44
423.496	223.44
423.956	234.74
424.416	245.54
424.876	279.24
425.336	272.34
425.797	278.14
426.257	272.14
426.717	259.74
427.177	251.44
427.637	239.24
428.097	249.64
428.556	259.44
429.016	287.94
429.476	284.84
429.936	287.54
430.396	297.54
430.856	309.94
431.315	330.74
431.775	367.54
432.235	398.84
432.694	368.84
433.154	381.74
433.614	407.64
434.073	357.74
434.533	306.04
434.993	281.74
435.452	295.44
435.912	310.74
436.371	309.14
436.83	299.24
437.29	284.44
437.749	255.44
438.209	257.04
438.668	285.34
439.127	303.54
439.587	281.14
440.046	267.14
440.505	271.54
440.964	301.84
441.424	336.54
441.883	331.34
442.342	268.94
442.801	237.74
443.26	237.04
443.719	233.64
444.178	230.64
444.637	219.54
445.096	234.54
445.555	240.14
446.014	242.14
446.473	236.24
446.932	254.64
447.391	230.14
447.849	236.14
448.308	236.94
448.767	234.84
449.226	259.74
449.685	250.54
450.143	264.14
450.602	257.14
451.061	238.94
451.519	235.94
451.978	246.74
452.436	250.54
452.895	252.04
453.353	266.14
453.812	253.34
454.27	251.84
454.729	253.04
455.187	255.64
455.646	257.14
456.104	260.04
456.562	275.04
457.021	279.04
457.479	270.94
457.937	287.44
458.395	277.34
458.854	265.24
459.312	269.84
459.77	292.44
460.228	270.94
460.686	262.14
461.144	254.44
461.602	257.44
462.06	255.64
462.518	271.84
462.976	266.84
463.434	269.44
463.892	282.14
464.35	291.64
464.808	298.74
465.266	281.94
465.724	290.34
466.181	288.94
466.639	288.84
467.097	308.84
467.555	320.94
468.012	311.24
468.47	335.24
468.928	343.04
469.385	360.04
469.843	370.84
470.3	377.64
470.758	383.04
471.215	404.14
471.673	431.34
472.13	428.04
472.588	436.74
473.045	402.84
473.503	407.14
473.96	411.24
474.417	421.44
474.875	457.74
475.332	494.64
475.789	479.34
476.246	487.04
476.704	512.84
477.161	538.54
477.618	562.24
478.075	593.54
478.532	647.84
478.989	724.54
479.446	846.94
479.903	810.24
480.36	860.54
480.817	911.44
481.274	1011.94
481.731	1117.94
482.188	1228.64
482.645	1350.04
483.102	1457.24
483.558	1616.44
484.015	1671.34
484.472	1636.44
484.929	1586.64
485.385	1532.54
485.842	1492.84
486.299	1443.34
486.755	1359.54
487.212	1143.64
487.668	974.94
488.125	904.94
488.582	820.14
489.038	792.04
489.494	747.94
489.951	718.44
490.407	691.94
490.864	689.64
491.32	682.84
491.776	675.54
492.233	687.74
492.689	642.04
493.145	641.54
493.602	628.14
494.058	647.34
494.514	648.24
494.97	669.44
495.426	679.14
495.882	653.94
496.338	650.94
496.794	653.44
497.251	653.04
497.707	673.74
498.163	669.44
498.618	674.44
499.074	680.74
499.53	707.74
499.986	722.54
500.442	683.04
500.898	668.54
501.354	662.54
501.809	669.54
502.265	673.54
502.721	691.84
503.177	701.54
503.632	701.64
504.088	710.14
504.543	742.94
504.999	746.14
505.455	699.24
505.91	667.64
506.366	668.04
506.821	656.04
507.277	666.14
507.732	657.24
508.187	655.24
508.643	669.64
509.098	665.64
509.553	697.44
510.009	702.34
510.464	706.54
510.919	726.04
511.375	731.44
511.83	750.54
512.285	763.74
512.74	802.84
513.195	822.24
513.65	814.84
514.105	807.44
514.56	817.04
515.015	829.34
515.47	852.64
515.925	834.54
516.38	822.14
516.835	836.14
517.29	826.44
517.745	830.24
518.2	805.54
518.655	788.34
519.109	783.14
519.564	776.54
520.019	772.64
520.474	769.74
520.928	760.34
521.383	752.44
521.838	752.94
522.292	747.04
522.747	746.24
523.201	736.74
523.656	726.64
524.11	726.44
524.565	729.94
525.019	730.44
525.474	743.54
525.928	742.64
526.382	739.24
526.837	729.34
527.291	738.14
527.745	729.64
528.2	732.24
528.654	732.34
529.108	720.64
529.562	728.54
530.016	722.34
530.47	723.14
530.925	729.84
531.379	732.44
531.833	725.04
532.287	741.74
532.741	734.84
533.195	743.64
533.649	746.14
534.103	758.94
534.556	747.04
535.01	743.94
535.464	746.84
535.918	750.84
536.372	751.44
536.826	737.94
537.279	737.94
537.733	749.24
538.187	751.94
538.64	752.04
539.094	762.24
539.548	761.74
540.001	756.24
540.455	761.74
540.908	770.14
541.362	774.24
541.815	787.34
542.269	790.24
542.722	790.64
543.175	805.84
543.629	805.04
544.082	819.04
544.536	829.54
544.989	820.94
545.442	833.74
545.895	821.64
546.349	824.24
546.802	821.64
547.255	838.94
547.708	840.04
548.161	854.34
548.614	862.54
549.067	863.04
549.52	853.34
549.973	843.34
550.426	852.34
550.879	837.34
551.332	838.44
551.785	843.24
552.238	844.34
552.691	855.94
553.144	874.04
553.596	886.94
554.049	896.94
554.502	925.14
554.955	951.34
555.407	950.94
555.86	939.44
556.313	934.34
556.765	927.54
557.218	924.74
557.67	926.14
558.123	917.74
558.576	913.84
559.028	919.04
559.48	926.94
559.933	914.14
560.385	876.24
560.838	846.94
561.29	819.84
561.742	821.04
562.195	802.14
562.647	797.94
563.099	814.04
563.551	820.94
564.004	818.04
564.456	808.64
564.908	791.64
565.36	786.94
565.812	777.34
566.264	766.84
566.716	756.14
567.168	754.74
567.62	750.54
568.072	736.04
568.524	726.54
568.976	724.34
569.428	705.94
569.88	711.44
570.332	720.44
570.784	716.04
571.235	714.84
571.687	725.54
572.139	730.24
572.59	737.04
573.042	742.24
573.494	743.54
573.945	733.84
574.397	709.34
574.849	722.84
575.3	724.94
575.752	718.04
576.203	706.94
576.655	715.34
577.106	700.04
577.557	695.64
578.009	693.84
578.46	696.84
578.912	687.04
579.363	696.64
579.814	695.74
580.265	690.34
580.717	699.54
581.168	703.94
581.619	710.74
582.07	703.44
582.521	704.34
582.972	698.44
583.423	712.54
583.875	715.04
584.326	729.94
584.777	771.74
585.227	854.24
585.678	934.94
586.129	1010.34
586.58	1102.54
587.031	1177.24
587.482	1326.44
587.933	1516.54
588.384	1342.74
588.834	1005.44
589.285	837.94
589.736	827.24
590.186	806.24
590.637	795.84
591.088	775.24
591.538	772.54
591.989	763.04
592.439	748.84
592.89	750.44
593.34	736.44
593.791	745.04
594.241	730.44
594.692	740.14
595.142	730.34
595.593	731.14
596.043	731.84
596.493	740.14
596.943	741.94
597.394	755.34
597.844	749.74
598.294	756.44
598.744	776.94
599.195	803.44
599.645	845.54
600.095	880.64
600.545	939.84
600.995	1001.24
601.445	1067.84
601.895	1131.24
602.345	1166.84
602.795	1145.04
603.245	1101.24
603.695	1053.64
604.145	991.24
604.594	942.24
605.044	896.24
605.494	836.24
605.944	778.64
606.393	766.94
606.843	757.54
607.293	759.54
607.743	765.84
608.192	774.14
608.642	783.14
609.091	796.44
609.541	809.64
609.99	786.94
610.44	790.14
610.889	736.84
611.339	731.04
611.788	716.24
612.238	727.94
612.687	738.74
613.136	744.34
613.586	765.14
614.035	757.24
614.484	792.14
614.933	779.64
615.383	765.64
615.832	757.54
616.281	749.94
616.73	720.94
617.179	692.64
617.628	680.34
618.077	654.84
618.526	645.24
618.975	636.14
619.424	637.54
619.873	628.94
620.322	639.44
620.771	633.84
621.22	627.24
621.669	616.54
622.118	609.04
622.567	608.14
623.015	594.74
623.464	587.84
623.913	583.14
624.361	570.84
624.81	563.54
625.259	571.44
625.707	573.94
626.156	577.44
626.604	588.54
627.053	576.94
627.501	579.34
627.95	602.84
628.398	606.64
628.847	591.14
629.295	592.34
629.744	595.94
630.192	595.94
630.64	582.44
631.089	589.54
631.537	595.54
631.985	607.14
632.433	612.54
632.881	622.84
633.33	680.34
633.778	659.64
634.226	588.74
634.674	589.84
635.122	595.24
635.57	609.64
636.018	649.34
636.466	605.44
636.914	572.44
637.362	590.64
637.81	596.64
638.258	597.24
638.705	598.04
639.153	628.64
639.601	629.94
640.049	672.94
640.497	689.64
640.944	712.34
641.392	666.74
641.84	638.44
642.287	603.74
642.735	584.24
643.182	589.74
643.63	577.64
644.078	598.14
644.525	614.54
644.973	617.14
645.42	628.24
645.867	644.94
646.315	656.84
646.762	669.14
647.21	709.74
647.657	733.84
648.104	765.14
648.551	794.04
648.999	854.84
649.446	944.44
649.893	1034.04
650.34	1192.34
650.787	1419.54
651.234	1767.44
651.682	2312.44
652.129	3136.04
652.576	4522.24
653.023	6679.84
653.47	9151.64
653.917	11447.24
654.363	13175.44
654.81	14557.44
655.257	13880.44
655.704	9119.04
656.151	5397.24
656.598	3487.04
657.044	2485.44
657.491	1911.44
657.938	1522.74
658.385	1271.64
658.831	1112.84
659.278	989.44
659.724	889.84
660.171	816.24
660.618	734.44
661.064	699.44
661.511	688.74
661.957	666.44
662.404	664.04
662.85	674.14
663.296	635.94
663.743	571.44
664.189	547.24
664.635	548.34
665.082	543.84
665.528	548.24
665.974	531.94
666.42	529.74
666.867	520.44
667.313	505.54
667.759	495.74
668.205	498.44
668.651	491.04
669.097	498.74
669.543	510.34
669.989	478.14
670.435	457.84
670.881	460.94
671.327	459.24
671.773	487.44
672.219	510.44
672.665	549.64
673.11	603.44
673.556	642.44
674.002	692.74
674.448	670.94
674.893	562.54
675.339	489.04
675.785	452.64
676.23	431.74
676.676	407.34
677.122	399.94
677.567	385.04
678.013	377.54
678.458	371.44
678.904	375.94
679.349	357.04
679.794	363.34
680.24	364.54
680.685	364.44
681.131	359.44
681.576	359.14
682.021	362.04
682.466	357.94
682.912	355.04
683.357	359.64
683.802	385.44
684.247	417.54
684.692	471.14
685.137	503.24
685.583	546.94
686.028	571.54
686.473	517.84
686.918	453.04
687.363	421.14
687.807	406.44
688.252	380.34
688.697	364.74
689.142	346.24
689.587	344.14
690.032	332.44
690.477	350.24
690.921	362.74
691.366	398.14
691.811	410.44
692.255	444.54
692.7	467.34
693.145	511.44
693.589	710.74
694.034	1141.14
694.478	1566.84
694.923	1779.24
695.367	2317.14
695.812	1224.84
696.256	508.04
696.701	382.14
697.145	356.14
697.59	330.24
698.034	330.64
698.478	333.34
698.922	336.24
699.367	332.04
699.811	343.34
700.255	370.64
700.699	401.54
701.143	438.04
701.588	481.84
702.032	520.14
702.476	523.34
702.92	487.84
703.364	502.74
703.808	635.64
704.252	1048.94
704.696	1480.74
705.14	1715.84
705.584	2176.24
706.027	1066.14
706.471	526.64
706.915	400.94
707.359	352.94
707.803	325.84
708.246	324.34
708.69	314.94
709.134	324.24
709.577	323.44
710.021	325.54
710.465	309.84
710.908	310.94
711.352	311.24
711.795	311.44
712.239	366.04
712.682	394.44
713.126	425.54
713.569	471.64
714.012	378.34
714.456	332.44
714.899	308.14
715.342	282.44
715.786	263.84
716.229	263.54
716.672	257.04
717.115	255.04
717.558	262.84
718.002	260.74
718.445	265.94
718.888	291.04
719.331	299.54
719.774	309.24
720.217	303.84
720.66	292.74
721.103	273.54
721.546	252.74
721.989	251.24
722.432	233.94
722.874	246.34
723.317	237.54
723.76	237.24
724.203	261.64
724.645	323.74
725.088	455.24
725.531	583.24
725.974	650.34
726.416	561.24
726.859	312.44
727.301	257.04
727.744	243.54
728.187	241.24
728.629	248.14
729.071	246.44
729.514	257.74
729.956	270.14
730.399	287.84
730.841	289.44
731.283	275.54
731.726	279.14
732.168	270.94
732.61	270.14
733.053	290.34
733.495	315.44
733.937	348.64
734.379	396.54
734.821	444.04
735.263	550.94
735.705	836.34
736.148	1590.94
736.59	2606.24
737.032	3115.94
737.474	2540.64
737.916	820.24
738.357	435.14
738.799	333.84
739.241	300.74
739.683	285.54
740.125	298.74
740.567	302.04
741.008	315.94
741.45	322.14
741.892	318.34
742.334	350.84
742.775	369.54
743.217	342.14
743.658	275.94
744.1	263.34
744.542	264.84
744.983	315.34
745.425	348.94
745.866	349.34
746.307	291.04
746.749	289.34
747.19	331.64
747.632	458.94
748.073	891.24
748.514	1875.24
748.956	2895.04
749.397	3624.04
749.838	3011.74
750.279	3013.44
750.72	1522.44
751.162	560.44
751.603	326.64
752.044	260.54
752.485	226.24
752.926	211.34
753.367	206.14
753.808	193.44
754.249	190.94
754.69	183.04
755.131	187.24
755.572	179.54
756.013	177.94
756.453	191.54
756.894	186.74
757.335	198.94
757.776	201.84
758.216	196.34
758.657	204.94
759.098	201.14
759.538	226.14
759.979	273.74
760.42	388.14
760.86	714.24
761.301	1820.84
761.741	4481.74
762.182	6554.64
762.622	4606.34
763.063	1317.24
763.503	543.34
763.943	352.64
764.384	346.14
764.824	409.24
765.264	440.44
765.705	311.94
766.145	208.34
766.585	190.84
767.025	188.74
767.465	184.34
767.906	238.94
768.346	324.34
768.786	350.24
769.226	266.74
769.666	315.84
770.106	622.84
770.546	1561.04
770.986	2708.54
771.426	2416.74
771.866	792.74
772.306	332.84
772.745	214.14
773.185	174.74
773.625	174.44
774.065	170.24
774.505	196.04
774.944	300.44
775.384	653.44
775.824	1183.94
776.263	1152.24
776.703	501.64
777.142	212.54
777.582	158.74
778.021	140.24
778.461	148.14
778.9	144.94
779.34	131.34
779.779	117.94
780.219	118.04
780.658	115.44
781.097	113.94
781.537	115.54
781.976	111.34
782.415	118.14
782.855	104.24
783.294	100.34
783.733	110.34
784.172	115.24
784.611	108.54
785.05	110.74
785.489	116.24
785.928	123.34
786.367	124.54
786.806	124.34
787.245	132.04
787.684	141.14
788.123	148.54
788.562	137.44
789.001	132.54
789.44	131.34
789.879	114.84
790.317	118.94
790.756	129.94
791.195	130.04
791.634	145.74
792.072	202.74
792.511	367.44
792.95	999.44
793.388	2154.14
793.827	1965.34
794.265	682.44
794.704	285.34
795.142	192.24
795.581	156.24
796.019	135.14
796.458	128.84
796.896	129.54
797.334	133.44
797.773	155.74
798.211	218.64
798.649	434.34
799.087	1022.84
799.526	1604.04
799.964	2032.04
800.402	2044.24
800.84	768.14
801.278	305.94
801.716	186.24
802.154	152.54
802.592	148.64
803.03	139.84
803.468	141.94
803.906	147.74
804.344	144.24
804.782	142.54
805.22	140.04
805.658	129.74
806.096	148.84
806.533	153.04
806.971	181.24
807.409	218.14
807.847	316.64
808.284	663.14
808.722	1860.54
809.16	3334.34
809.597	3131.84
810.035	5453.04
810.472	5881.74
810.91	2117.54
811.347	796.24
811.785	415.04
812.222	262.74
812.66	204.44
813.097	169.64
813.535	146.34
813.972	131.74
814.409	114.64
814.846	116.54
815.284	111.74
815.721	109.94
816.158	108.74
816.595	119.74
817.032	180.14
817.47	199.64
817.907	173.44
818.344	152.74
818.781	118.54
819.218	104.24
819.655	124.64
820.092	185.14
820.529	215.34
820.966	176.74
821.403	142.44
821.839	109.84
822.276	107.44
822.713	124.44
823.15	134.74
823.587	121.54
824.023	152.64
824.46	298.84
824.897	894.54
825.333	1385.44
825.77	595.44
826.206	229.74
826.643	141.44
827.08	100.54
827.516	78.44
827.953	75.74
828.389	88.04
828.825	74.44
829.262	72.14
829.698	65.94
830.135	69.94
830.571	65.34
831.007	67.44
831.443	68.44
831.88	63.44
832.316	62.04
832.752	66.64
833.188	70.14
833.624	62.84
834.06	72.74
834.497	69.34
834.933	69.84
835.369	79.74
835.805	67.74
836.241	80.54
836.677	81.44
837.112	94.54
837.548	107.44
837.984	129.84
838.42	201.04
838.856	500.54
839.292	1528.34
839.727	2328.84
840.163	1081.94
840.599	927.04
841.034	2037.44
841.47	2151.04
841.906	776.04
842.341	338.04
842.777	230.94
843.212	303.14
843.648	304.74
844.083	153.54
844.519	97.84
844.954	74.74
845.39	66.94
845.825	61.94
846.261	62.94
846.696	51.04
847.131	57.24
847.566	57.04
848.002	58.14
848.437	55.84
848.872	62.84
849.307	69.94
849.742	88.84
850.177	178.54
850.613	560.04
851.048	882.84
851.483	384.14
851.918	156.74
852.353	95.14
852.788	65.64
853.223	60.04
853.657	57.24
854.092	48.34
854.527	44.64
854.962	45.44
855.397	49.54
855.832	51.74
856.266	38.14
856.701	40.74
857.136	34.64
857.57	45.54
858.005	49.24
858.44	54.64
858.874	48.04
859.309	56.44
859.743	43.54
860.178	42.84
860.612	41.04
861.047	63.84
861.481	67.24
861.915	72.84
862.35	55.04
862.784	36.14
863.218	36.34
863.653	38.34
864.087	50.44
864.521	49.84
864.955	72.74
865.39	158.14
865.824	180.84
866.258	118.84
866.692	162.44
867.126	178.44
867.56	113.34
867.994	53.54
868.428	43.44
868.862	45.64
869.296	59.14
869.73	63.44
870.164	52.44
870.598	51.94
871.031	43.34
871.465	32.74
871.899	37.14
872.333	22.84
872.766	26.04
873.2	23.04
873.634	27.74
874.067	31.24
874.501	24.04
874.935	40.74
875.368	30.94
875.802	28.24
876.235	26.74
876.669	24.84
877.102	28.54
877.535	25.74
877.969	24.24
878.402	26.24
878.836	24.04
879.269	22.84
879.702	21.04
880.135	24.94
880.569	22.14
881.002	26.74
881.435	21.54
881.868	18.24
882.301	25.64
882.734	18.54
883.167	27.94
883.601	17.74
884.034	24.94
884.467	15.14
884.899	22.74
885.332	18.44
885.765	23.34
886.198	13.94
886.631	17.04
887.064	21.94
887.497	21.04
887.929	23.74
888.362	18.84
888.795	16.34
889.228	17.94
889.66	19.74
890.093	17.84
890.526	18.34
890.958	16.14
891.391	19.94
891.823	24.84
892.256	16.74
892.688	18.44
893.121	17.74
893.553	15.04
893.985	22.24
894.418	22.44
894.85	18.94
895.282	18.34
895.715	15.24
896.147	19.14
896.579	17.64
897.011	17.14
897.444	17.44
897.876	18.84
898.308	16.84
898.74	20.24
899.172	15.54
899.604	22.64
900.036	22.54
900.468	19.94
900.9	15.64
901.332	24.24
901.764	13.44
902.196	20.94
902.628	19.74
903.06	17.34
903.491	30.14
903.923	21.74
904.355	17.94
904.787	24.74
905.218	25.34
905.65	28.34
906.082	12.04
906.513	12.34
906.945	16.04
907.376	16.34
907.808	17.74
908.239	22.84
908.671	22.64
909.102	21.24
909.534	24.94
909.965	47.64
910.397	93.54
910.828	318.14
911.259	484.24
911.691	221.84
912.122	107.64
912.553	50.54
912.984	33.94
913.415	26.54
913.847	28.64
914.278	18.44
914.709	19.04
915.14	20.74
915.571	15.64
916.002	18.84
916.433	17.14
916.864	19.64
917.295	18.04
917.726	24.44
918.157	19.34
918.587	27.34
919.018	17.34
919.449	22.84
919.88	28.54
920.311	25.14
920.741	47.04
921.172	171.74
921.603	146.04
922.033	72.84
922.464	47.14
922.895	28.24
923.325	18.14
923.756	14.54
924.186	16.64
924.617	23.44
925.047	38.44
925.478	55.94
925.908	42.34
926.338	25.04
926.769	17.64
927.199	24.34
927.629	14.54
928.06	16.44
928.49	15.94
928.92	20.84
929.35	10.24
929.78	8.84
930.21	9.04
930.641	9.24
931.071	15.04
931.501	6.14
931.931	12.14
932.361	6.74
932.791	8.24
933.221	8.14
933.651	1.54
934.08	20.94
934.51	31.64
934.94	5.94
935.37	17.74
935.8	11.14
936.229	9.24
936.659	5.64
937.089	0.04
937.519	19.64
937.948	22.04
938.378	17.14
938.807	3.14
939.237	4.64
939.666	7.94
940.096	-4.86
940.525	6.84
940.955	7.64
941.384	7.34
941.814	-2.66
942.243	-1.26
942.672	6.14
943.102	1.14
943.531	-0.76
943.96	5.94
944.39	4.44
944.819	-1.76
945.248	1.94
945.677	1.74
946.106	8.44
946.535	6.54
946.964	0.34
947.393	-0.76
947.822	3.04
948.251	0.54
948.68	5.14
949.109	2.94
949.538	12.44
949.967	3.64
950.396	2.44
950.825	0.94
951.254	5.44
951.682	-4.86
952.111	-0.86
952.54	4.44
952.969	-0.86
953.397	-3.46
953.826	6.54
954.254	-1.16
954.683	8.14
955.112	4.04
955.54	2.64
955.969	-2.76
956.397	1.44
956.826	-2.46
957.254	10.54
957.682	0.04
958.111	7.54
958.539	-2.96
958.967	5.14
959.396	1.54
959.824	3.24
960.252	4.14
960.68	-7.16
961.109	-5.96
961.537	-0.76
961.965	3.44
962.393	-1.66
962.821	-0.06
963.249	2.24
963.677	5.34
964.105	9.44
964.533	42.94
964.961	45.64
965.389	18.24
965.817	9.04
966.245	4.24
966.672	2.94
967.1	-10.56
967.528	3.04
967.956	-3.76
968.383	3.54
968.811	-6.56
969.239	2.54
969.666	0.34
970.094	4.34
970.522	6.74
970.949	-2.16
971.377	-3.16
971.804	0.44
972.232	-3.96
972.659	-3.96
973.087	0.24
973.514	0.24
973.941	-6.76
974.369	5.24
974.796	0.54
975.223	3.24
975.651	-3.26
976.078	2.34
976.505	2.34
976.932	1.24
977.359	14.24
977.786	16.44
978.214	-0.06
978.641	-3.56
979.068	-2.16
979.495	-8.96
979.922	1.44
980.349	-3.76
980.776	0.54
981.202	2.94
981.629	1.24
982.056	6.04
982.483	-1.66
982.91	3.14
983.337	-7.36
983.763	2.04
984.19	-4.26
984.617	0.84
985.043	-4.46
985.47	-4.66
985.897	-4.26
986.323	-5.06
986.75	3.14
987.176	3.24
987.603	4.54
988.029	1.44
988.456	-1.46
988.882	8.54
989.308	-3.66
989.735	2.54
990.161	7.24
990.587	1.54
991.014	2.24
991.44	8.84
991.866	1.24
992.292	-5.66
992.719	-1.36
993.145	1.94
993.571	-7.86
993.997	-3.86
994.423	-1.36
994.849	-7.46
995.275	0.94
995.701	-0.66
996.127	-2.86
996.553	2.14
996.979	-6.36
997.405	1.74
997.83	-2.26
998.256	-3.56
998.682	-5.56
999.108	-8.76
999.534	-4.06
999.959	-3.46
1000.385	-1.76
1000.811	0.14
1001.236	-6.86
1001.662	-7.26
1002.087	-11.46
1002.513	6.84
1002.938	4.24
1003.364	-6.46
1003.789	-0.26
1004.215	-0.36
1004.64	0.04
1005.066	4.24
1005.491	-0.46
1005.916	-1.06
1006.342	-2.46
1006.767	-0.46
1007.192	11.84
1007.617	2.44
1008.042	-10.26
1008.468	-1.06
1008.893	-2.66
1009.318	-1.66
1009.743	1.34
1010.168	5.14
1010.593	2.64
1011.018	-4.56
1011.443	-1.96
1011.868	0.34
1012.293	-2.46
1012.718	-3.16
1013.143	-2.46
1013.567	-0.66
1013.992	1.04
1014.417	-15.96
1014.842	4.14
1015.267	-2.96
1015.691	-0.86
1016.116	5.14
1016.541	0.94
1016.965	1.84
1017.39	-3.36
1017.814	5.04
1018.239	-3.76
1018.663	-9.06
1019.088	-6.16
1019.512	-1.36
1019.937	2.04
1020.361	-3.26
1020.785	-7.86
1021.21	-3.36
1021.634	-2.26
1022.058	-0.16
1022.483	4.14
1022.907	-0.56
1023.331	0.44
1023.755	-7.66
1024.179	-4.16
1024.604	-7.76
1025.028	-8.06
1025.452	-1.86
1025.876	-1.16
1026.3	3.14
1026.724	-3.36
1027.148	-1.66
1027.572	-6.26
1027.996	-4.16
1028.42	0.94
1028.843	-2.36
1029.267	-2.36
1029.691	-3.36
1030.115	-6.66
1030.539	-0.86
1030.962	-4.06
1031.386	-5.36
1031.81	2.14
1032.233	2.04
1032.657	0.64
1033.08	-0.66
1033.504	-0.36
1033.927	-9.36
1034.351	0.44
1034.774	-4.86
1035.198	1.64
1035.621	-1.46
1036.045	-9.46
1036.468	1.54
1036.891	-10.16
1037.315	-1.46
1037.738	-14.26
1038.161	2.64
1038.584	-4.06
1039.008	-0.76
1039.431	-6.06
1039.854	-3.46
1040.277	-3.96
1040.7	-13.06
1041.123	-1.96
1041.546	-7.16
1041.969	0.34
1042.392	-6.16
1042.815	-1.76
1043.238	-0.26
1043.661	3.74
1044.084	-8.26
1044.507	-4.46
1044.93	-5.16
1045.352	-7.66
1045.775	-0.96
1046.198	3.04
1046.621	-1.86
1047.043	0.24
1047.466	8.34
1047.889	-2.66
1048.311	4.54
1048.734	-1.16
1049.156	-2.46
1049.579	-3.16
1050.001	-4.76
1050.424	-0.76
1050.846	-3.86
1051.269	-1.96
1051.691	-3.26
1052.113	-8.46
1052.536	1.24
1052.958	1.14
1053.38	-4.16
1053.802	-6.26
1054.225	6.04
1054.647	-7.96
1055.069	-6.36
1055.491	9.04
1055.913	-7.66
1056.335	1.74
1056.757	-0.36
1057.179	-5.36
1057.601	-5.36
1058.023	-4.26
1058.445	-3.76
1058.867	-4.36
1059.289	2.04
1059.711	-9.26
1060.133	1.64
1060.555	-1.46
1060.976	-4.86
1061.398	-0.06
1061.82	-3.46
1062.241	-5.26
1062.663	-10.66
1063.085	-1.06
1063.506	2.84
1063.928	-2.16
1064.35	3.04
1064.771	-0.66
1065.193	1.14
1065.614	-15.76
1066.035	-5.96
1066.457	-5.56
1066.878	6.24
1067.3	-5.46
1067.721	-10.56
1068.142	-0.66
1068.564	-3.56
1068.985	-3.86
1069.406	-7.66
1069.827	-10.16
1070.248	-2.16
1070.67	-4.96
1071.091	-2.26
1071.512	-0.46
1071.933	-3.66
1072.354	-2.66
1072.775	-4.06
1073.196	-7.76
1073.617	-3.16
1074.038	-5.26
1074.459	-0.16
1074.88	-3.16
1075.3	2.84
1075.721	-5.66
1076.142	-0.46
1076.563	2.54
1076.983	-6.96
1077.404	-7.46
1077.825	-6.86
1078.246	4.54
1078.666	-6.66
1079.087	-3.36
1079.507	-2.56
1079.928	3.54
1080.348	4.24
1080.769	4.74
1081.189	-5.76
1081.61	-7.36
1082.03	-5.36
1082.451	-6.56
1082.871	-1.76
1083.291	-7.46
1083.711	-6.86
1084.132	-4.56
1084.552	-4.76
1084.972	-0.76
1085.392	-6.66
1085.813	-8.96
1086.233	-8.96
1086.653	-7.66
1087.073	-1.46
1087.493	-12.66
1087.913	-9.66
1088.333	-10.26
1088.753	-2.46
1089.173	1.74
1089.593	2.24
1090.013	-2.16
1090.433	1.44
1090.852	-1.86
1091.272	-7.26
1091.692	-1.66
1092.112	-1.46
1092.531	-7.16
1092.951	-12.56
1093.371	-0.16
1093.79	-0.56
1094.21	-5.96
1094.63	-13.16
1095.049	-5.96
1095.469	1.34
1095.888	4.14
1096.308	0.74
1096.727	3.14
1097.146	-5.86
1097.566	-4.46
1097.985	-6.86
1098.405	-1.06
1098.824	-6.96
1099.243	-7.76
1099.662	-7.46
1100.082	-6.16
1100.501	-1.96
1100.92	-8.66
1101.339	-2.66
1101.758	-6.76
