Data from 20171114-ORNL-Ar_H_NY_Subt18_08-03-29-305.txt Node
Date: Tue Nov 14 08:03:29 EST 2017
User: Ender
Spectrometer: HR+D1039
Trigger mode: 0
Integration Time (sec): 2.730000E-2
Scans to average: 10
Electric dark correction enabled: true
Nonlinearity correction enabled: false
Boxcar width: 0
XAxis mode: Wavelengths
Number of Pixels in Spectrum: 2048
>>>>>Begin Spectral Data<<<<<
187.836	-5.86
188.309	-5.86
188.782	-5.86
189.255	1.64
189.728	-3.06
190.201	0.24
190.674	-3.26
191.147	3.64
191.619	-6.26
192.092	6.74
192.565	7.44
193.038	2.64
193.511	0.54
193.984	4.94
194.456	-1.86
194.929	1.04
195.402	-4.36
195.874	-4.16
196.347	1.84
196.82	-6.36
197.292	0.94
197.765	-4.76
198.237	-3.06
198.71	4.04
199.182	1.54
199.655	-2.96
200.127	-6.66
200.6	-2.46
201.072	-1.76
201.544	-9.86
202.017	-6.86
202.489	1.54
202.961	-2.96
203.433	-1.36
203.906	-7.26
204.378	-6.86
204.85	-1.76
205.322	-12.16
205.794	3.84
206.266	-0.66
206.739	-5.46
207.211	6.44
207.683	-3.86
208.155	-1.56
208.627	-4.86
209.099	-5.36
209.57	-9.96
210.042	-4.66
210.514	-3.86
210.986	-5.46
211.458	-5.16
211.93	-2.16
212.402	4.64
212.873	-0.96
213.345	-11.86
213.817	-12.76
214.288	-6.06
214.76	-12.36
215.232	-6.46
215.703	-7.06
216.175	-4.56
216.646	-8.16
217.118	-10.36
217.589	-4.26
218.061	-1.76
218.532	-5.36
219.004	-4.56
219.475	-6.86
219.946	-6.16
220.418	-6.26
220.889	5.94
221.36	-1.76
221.832	-2.86
222.303	-11.36
222.774	1.74
223.245	-10.56
223.717	-7.56
224.188	1.34
224.659	-8.26
225.13	-8.06
225.601	-2.26
226.072	3.14
226.543	-2.76
227.014	-0.96
227.485	-3.06
227.956	-9.46
228.427	-4.36
228.898	-0.86
229.369	4.34
229.839	-5.36
230.31	-7.86
230.781	-0.66
231.252	-2.56
231.722	-4.46
232.193	-10.16
232.664	-8.16
233.135	-5.06
233.605	-7.76
234.076	-9.26
234.546	5.04
235.017	3.74
235.487	-0.86
235.958	-3.56
236.428	-2.86
236.899	-2.66
237.369	-3.36
237.84	-3.86
238.31	-2.66
238.78	-4.76
239.251	-11.86
239.721	-4.56
240.191	-3.46
240.662	-2.86
241.132	2.84
241.602	-12.56
242.072	-2.16
242.542	0.14
243.013	-6.76
243.483	-5.36
243.953	-3.26
244.423	-4.96
244.893	-7.86
245.363	0.24
245.833	-4.96
246.303	-5.56
246.773	-0.76
247.243	-7.86
247.712	-1.36
248.182	6.04
248.652	-3.06
249.122	-8.56
249.592	-7.46
250.061	-0.86
250.531	-1.86
251.001	-9.76
251.471	2.74
251.94	10.34
252.41	-8.06
252.879	-12.06
253.349	3.74
253.818	3.74
254.288	-6.96
254.757	-2.46
255.227	-6.96
255.696	-2.06
256.166	0.14
256.635	-1.36
257.105	-0.96
257.574	-3.66
258.043	-3.16
258.513	-6.26
258.982	-1.16
259.451	-9.56
259.92	-6.06
260.389	-10.16
260.859	4.54
261.328	-2.16
261.797	9.44
262.266	-6.16
262.735	1.74
263.204	-5.56
263.673	-2.76
264.142	0.84
264.611	-6.16
265.08	-8.26
265.549	-13.86
266.018	-6.76
266.487	-10.56
266.955	-16.06
267.424	-9.46
267.893	-6.56
268.362	-9.56
268.83	-8.86
269.299	-1.56
269.768	-4.16
270.236	-3.56
270.705	-6.66
271.174	-7.86
271.642	-7.26
272.111	-5.26
272.579	0.44
273.048	-7.66
273.516	-9.96
273.985	-6.86
274.453	-6.76
274.922	-2.46
275.39	-2.06
275.858	-11.46
276.327	-4.56
276.795	3.94
277.263	-10.76
277.731	-1.06
278.2	-5.36
278.668	-7.46
279.136	-2.36
279.604	-6.76
280.072	0.64
280.54	1.64
281.008	-9.56
281.477	-6.76
281.945	-5.36
282.413	-3.16
282.881	-0.56
283.348	-5.36
283.816	1.84
284.284	-6.76
284.752	5.14
285.22	-5.46
285.688	-4.26
286.156	0.34
286.623	2.54
287.091	-4.46
287.559	-5.96
288.026	1.04
288.494	-5.06
288.962	-9.66
289.429	-5.36
289.897	0.24
290.364	-4.36
290.832	2.94
291.3	-3.66
291.767	-3.96
292.234	-2.46
292.702	-14.36
293.169	-3.56
293.637	2.94
294.104	-0.86
294.571	-9.86
295.039	0.24
295.506	-4.76
295.973	-2.66
296.44	-5.66
296.908	-3.86
297.375	-2.96
297.842	0.24
298.309	-6.26
298.776	-7.66
299.243	-6.36
299.71	-5.96
300.177	-1.96
300.644	-2.66
301.111	-4.66
301.578	2.74
302.045	-8.46
302.512	0.74
302.979	-0.06
303.446	0.64
303.913	-3.96
304.379	-7.86
304.846	5.24
305.313	-6.36
305.78	-1.66
306.246	-3.76
306.713	-0.26
307.18	-1.56
307.646	-2.16
308.113	-5.16
308.579	-5.26
309.046	-0.56
309.512	-0.96
309.979	-11.96
310.445	-4.36
310.912	-2.36
311.378	5.34
311.845	-2.76
312.311	-3.36
312.777	-6.46
313.244	-1.96
313.71	6.34
314.176	-3.66
314.642	-4.86
315.109	-5.96
315.575	0.34
316.041	0.24
316.507	-11.16
316.973	-1.46
317.439	-0.26
317.905	0.64
318.371	-1.06
318.837	-3.16
319.303	-3.66
319.769	-1.66
320.235	-8.36
320.701	-1.26
321.167	-3.56
321.633	-2.76
322.099	-5.06
322.564	0.14
323.03	-3.16
323.496	-7.16
323.962	-4.26
324.427	-3.26
324.893	-2.06
325.359	-1.26
325.824	-3.16
326.29	-4.26
326.755	-3.46
327.221	-5.46
327.686	1.34
328.152	2.84
328.617	-1.76
329.083	-3.96
329.548	3.14
330.014	2.94
330.479	-5.76
330.944	0.84
331.41	-5.96
331.875	2.04
332.34	-8.26
332.805	-6.96
333.271	4.24
333.736	-12.06
334.201	1.44
334.666	0.14
335.131	-3.86
335.596	-4.96
336.061	-1.26
336.526	-14.36
336.991	0.64
337.456	5.14
337.921	-4.56
338.386	-5.16
338.851	-2.16
339.316	-0.46
339.781	-2.46
340.246	-4.46
340.711	-1.06
341.175	-0.66
341.64	-8.16
342.105	0.84
342.569	2.54
343.034	-2.96
343.499	-2.56
343.963	-5.46
344.428	1.74
344.893	-1.06
345.357	2.04
345.822	-5.76
346.286	-1.16
346.751	0.44
347.215	-2.36
347.679	-2.36
348.144	-0.36
348.608	7.04
349.073	-4.66
349.537	-4.76
350.001	-1.66
350.465	0.54
350.93	-4.76
351.394	2.04
351.858	-9.26
352.322	9.04
352.786	-4.76
353.25	1.04
353.715	11.34
354.179	2.54
354.643	8.14
355.107	0.74
355.571	-3.86
356.035	3.24
356.498	1.54
356.962	-5.26
357.426	6.04
357.89	-0.16
358.354	0.24
358.818	3.94
359.281	-0.46
359.745	-6.16
360.209	-3.06
360.673	-4.36
361.136	4.94
361.6	9.74
362.064	3.34
362.527	-2.46
362.991	1.44
363.454	-4.76
363.918	-8.76
364.381	-7.36
364.845	-1.86
365.308	-0.66
365.772	2.54
366.235	2.84
366.698	-5.16
367.162	-4.16
367.625	-2.86
368.088	-3.76
368.552	-3.56
369.015	-3.86
369.478	3.14
369.941	3.74
370.404	-5.06
370.867	-4.46
371.331	-1.46
371.794	-2.16
372.257	-9.66
372.72	2.44
373.183	0.34
373.646	-5.66
374.109	-7.76
374.572	1.24
375.035	-2.86
375.497	2.14
375.96	-3.76
376.423	-3.96
376.886	6.24
377.349	2.34
377.811	-4.86
378.274	-3.66
378.737	-5.06
379.199	-0.96
379.662	-2.96
380.125	0.74
380.587	-4.56
381.05	-7.56
381.512	-5.36
381.975	4.24
382.437	3.84
382.9	-2.96
383.362	-0.96
383.825	-9.86
384.287	1.64
384.75	-1.36
385.212	-0.76
385.674	1.94
386.136	4.34
386.599	-1.26
387.061	0.94
387.523	-1.86
387.985	-2.36
388.447	7.54
388.91	-3.86
389.372	1.74
389.834	8.54
390.296	-2.16
390.758	-0.26
391.22	-0.46
391.682	0.74
392.144	4.34
392.606	1.24
393.068	5.34
393.529	5.64
393.991	-7.86
394.453	-3.76
394.915	0.74
395.377	3.34
395.838	3.04
396.3	0.64
396.762	4.34
397.224	3.44
397.685	0.94
398.147	2.54
398.608	-6.96
399.07	2.74
399.531	-7.46
399.993	-4.06
400.454	-0.56
400.916	7.04
401.377	3.24
401.839	3.34
402.3	-6.66
402.762	3.14
403.223	2.34
403.684	-1.36
404.145	2.04
404.607	0.74
405.068	1.54
405.529	-0.86
405.99	0.44
406.451	-9.26
406.913	0.14
407.374	1.54
407.835	-2.16
408.296	-1.46
408.757	2.24
409.218	1.24
409.679	-2.96
410.14	-1.56
410.601	2.24
411.062	4.94
411.522	6.24
411.983	-3.66
412.444	-9.76
412.905	-1.76
413.366	-4.56
413.826	2.84
414.287	1.64
414.748	6.54
415.208	7.44
415.669	4.24
416.13	7.04
416.59	2.64
417.051	8.54
417.511	6.44
417.972	6.04
418.432	1.84
418.893	11.44
419.353	8.24
419.814	3.14
420.274	1.64
420.734	4.94
421.195	2.74
421.655	-4.36
422.115	-2.46
422.576	-2.56
423.036	3.84
423.496	0.24
423.956	0.64
424.416	2.64
424.876	10.54
425.336	2.14
425.797	8.14
426.257	5.94
426.717	-3.16
427.177	4.84
427.637	-1.06
428.097	2.04
428.556	-5.66
429.016	3.64
429.476	-4.46
429.936	1.54
430.396	-4.76
430.856	-0.56
431.315	6.94
431.775	4.64
432.235	14.74
432.694	-3.16
433.154	12.24
433.614	5.74
434.073	-1.66
434.533	4.24
434.993	-2.26
435.452	5.84
435.912	2.64
436.371	-2.56
436.83	1.94
437.29	7.44
437.749	-1.26
438.209	-4.96
438.668	5.44
439.127	6.04
439.587	4.54
440.046	-2.46
440.505	-2.06
440.964	2.54
441.424	-0.96
441.883	4.74
442.342	5.84
442.801	-0.16
443.26	-1.36
443.719	7.34
444.178	2.84
444.637	-5.66
445.096	-6.76
445.555	2.14
446.014	5.04
446.473	9.34
446.932	7.54
447.391	-5.76
447.849	-0.46
448.308	-3.06
448.767	-5.66
449.226	5.64
449.685	4.64
450.143	9.34
450.602	0.14
451.061	-1.16
451.519	1.64
451.978	-2.36
452.436	-4.66
452.895	-1.66
453.353	4.44
453.812	4.14
454.27	7.34
454.729	4.94
455.187	-5.46
455.646	3.64
456.104	-2.36
456.562	2.44
457.021	2.14
457.479	3.84
457.937	4.24
458.395	3.64
458.854	-2.56
459.312	-0.46
459.77	0.24
460.228	2.74
460.686	-2.86
461.144	6.14
461.602	1.14
462.06	2.04
462.518	7.84
462.976	1.44
463.434	-2.16
463.892	-3.36
464.35	-5.66
464.808	4.94
465.266	-0.46
465.724	3.84
466.181	4.44
466.639	-1.46
467.097	12.04
467.555	6.84
468.012	5.14
468.47	4.74
468.928	5.94
469.385	10.94
469.843	3.84
470.3	4.14
470.758	5.74
471.215	6.84
471.673	10.04
472.13	0.94
472.588	7.74
473.045	0.34
473.503	8.64
473.96	1.94
474.417	3.14
474.875	6.64
475.332	9.84
475.789	2.14
476.246	6.14
476.704	12.24
477.161	2.44
477.618	-2.46
478.075	7.74
478.532	7.84
478.989	10.84
479.446	14.64
479.903	15.34
480.36	7.54
480.817	0.34
481.274	13.44
481.731	9.94
482.188	-2.26
482.645	11.54
483.102	4.54
483.558	9.84
484.015	8.84
484.472	17.54
484.929	14.74
485.385	13.44
485.842	13.14
486.299	10.34
486.755	15.64
487.212	8.04
487.668	9.14
488.125	12.14
488.582	18.14
489.038	14.24
489.494	4.54
489.951	5.94
490.407	6.54
490.864	2.34
491.32	9.84
491.776	2.44
492.233	5.34
492.689	-0.16
493.145	6.64
493.602	3.44
494.058	6.94
494.514	4.24
494.97	13.94
495.426	9.14
495.882	7.74
496.338	1.84
496.794	12.44
497.251	6.34
497.707	10.04
498.163	13.24
498.618	10.04
499.074	9.84
499.53	12.04
499.986	13.14
500.442	6.14
500.898	2.94
501.354	7.74
501.809	4.94
502.265	13.94
502.721	13.94
503.177	16.04
503.632	17.74
504.088	14.04
504.543	8.64
504.999	12.64
505.455	6.04
505.91	5.64
506.366	11.44
506.821	8.74
507.277	6.74
507.732	6.54
508.187	-4.96
508.643	11.14
509.098	6.14
509.553	12.64
510.009	11.24
510.464	7.84
510.919	13.54
511.375	8.94
511.83	9.64
512.285	13.04
512.74	17.94
513.195	13.74
513.65	14.34
514.105	15.14
514.56	15.04
515.015	17.44
515.47	20.84
515.925	11.24
516.38	18.44
516.835	24.64
517.29	14.54
517.745	17.14
518.2	10.24
518.655	11.74
519.109	11.74
519.564	14.54
520.019	4.14
520.474	3.94
520.928	8.94
521.383	6.44
521.838	3.44
522.292	18.54
522.747	11.64
523.201	13.94
523.656	17.04
524.11	16.34
524.565	10.84
525.019	2.24
525.474	7.44
525.928	7.44
526.382	8.64
526.837	3.94
527.291	9.94
527.745	7.94
528.2	8.94
528.654	10.84
529.108	2.34
529.562	2.84
530.016	10.34
530.47	5.34
530.925	6.94
531.379	10.74
531.833	5.14
532.287	5.24
532.741	4.84
533.195	-2.66
533.649	10.54
534.103	18.54
534.556	7.24
535.01	9.74
535.464	5.74
535.918	13.34
536.372	10.74
536.826	11.24
537.279	10.94
537.733	9.94
538.187	6.34
538.64	4.74
539.094	11.24
539.548	8.94
540.001	3.04
540.455	1.54
540.908	8.94
541.362	11.94
541.815	10.84
542.269	13.64
542.722	12.34
543.175	8.04
543.629	8.64
544.082	11.24
544.536	7.44
544.989	8.14
545.442	8.94
545.895	6.24
546.349	11.84
546.802	11.64
547.255	8.44
547.708	9.04
548.161	9.24
548.614	12.54
549.067	15.74
549.52	11.84
549.973	14.34
550.426	20.54
550.879	2.94
551.332	10.74
551.785	15.84
552.238	3.64
552.691	15.84
553.144	12.04
553.596	8.94
554.049	4.84
554.502	14.24
554.955	14.64
555.407	11.74
555.86	12.74
556.313	18.44
556.765	13.54
557.218	20.54
557.67	14.54
558.123	10.34
558.576	11.14
559.028	16.34
559.48	12.44
559.933	16.74
560.385	12.14
560.838	9.64
561.29	8.34
561.742	12.34
562.195	6.74
562.647	2.04
563.099	13.64
563.551	11.54
564.004	13.04
564.456	9.34
564.908	8.74
565.36	9.54
565.812	5.44
566.264	6.04
566.716	9.24
567.168	14.74
567.62	14.94
568.072	8.84
568.524	0.54
568.976	7.34
569.428	3.54
569.88	4.34
570.332	5.24
570.784	12.14
571.235	1.34
571.687	9.34
572.139	11.24
572.59	9.24
573.042	7.44
573.494	4.64
573.945	5.94
574.397	3.84
574.849	8.14
575.3	10.24
575.752	6.14
576.203	8.54
576.655	6.14
577.106	6.84
577.557	8.04
578.009	13.24
578.46	1.94
578.912	7.14
579.363	8.84
579.814	7.44
580.265	1.24
580.717	0.14
581.168	0.54
581.619	2.64
582.07	6.34
582.521	5.04
582.972	3.84
583.423	1.14
583.875	1.24
584.326	0.54
584.777	0.24
585.227	9.24
585.678	8.74
586.129	1.24
586.58	8.74
587.031	10.74
587.482	18.44
587.933	9.44
588.384	8.94
588.834	4.54
589.285	10.74
589.736	7.84
590.186	5.74
590.637	4.64
591.088	12.24
591.538	13.14
591.989	14.54
592.439	8.94
592.89	5.54
593.34	1.34
593.791	5.44
594.241	5.54
594.692	5.34
595.142	4.14
595.593	3.24
596.043	8.74
596.493	5.54
596.943	5.54
597.394	6.34
597.844	0.34
598.294	1.64
598.744	15.94
599.195	11.14
599.645	18.94
600.095	11.14
600.545	13.54
600.995	13.04
601.445	23.24
601.895	22.74
602.345	33.84
602.795	24.44
603.245	13.14
603.695	19.24
604.145	6.84
604.594	8.34
605.044	9.14
605.494	5.54
605.944	5.34
606.393	7.24
606.843	6.94
607.293	2.64
607.743	8.84
608.192	-3.36
608.642	16.44
609.091	8.34
609.541	12.64
609.99	9.64
610.44	9.84
610.889	0.64
611.339	4.54
611.788	-3.66
612.238	8.04
612.687	17.74
613.136	8.64
613.586	6.64
614.035	-0.06
614.484	5.04
614.933	1.44
615.383	8.04
615.832	11.44
616.281	15.34
616.73	4.94
617.179	9.34
617.628	12.84
618.077	5.94
618.526	12.24
618.975	0.34
619.424	6.94
619.873	5.44
620.322	16.24
620.771	1.54
621.22	8.84
621.669	7.84
622.118	5.64
622.567	2.94
623.015	-4.66
623.464	5.24
623.913	7.74
624.361	-1.56
624.81	-1.06
625.259	-1.86
625.707	7.14
626.156	1.94
626.604	5.14
627.053	1.14
627.501	-1.16
627.95	-0.46
628.398	1.04
628.847	4.04
629.295	-2.76
629.744	2.34
630.192	9.94
630.64	9.84
631.089	1.64
631.537	4.44
631.985	-5.56
632.433	8.14
632.881	-1.76
633.33	7.04
633.778	-4.16
634.226	-1.36
634.674	1.04
635.122	6.54
635.57	8.14
636.018	4.44
636.466	5.04
636.914	-7.26
637.362	4.64
637.81	7.04
638.258	14.34
638.705	2.54
639.153	10.94
639.601	1.54
640.049	3.24
640.497	4.74
640.944	18.44
641.392	-3.86
641.84	-1.06
642.287	0.74
642.735	-3.66
643.182	3.84
643.63	7.04
644.078	-3.06
644.525	1.04
644.973	-2.66
645.42	-3.06
645.867	5.64
646.315	10.84
646.762	0.94
647.21	0.74
647.657	-3.26
648.104	9.44
648.551	4.34
648.999	5.24
649.446	2.44
649.893	-0.76
650.34	-1.86
650.787	-0.36
651.234	5.34
651.682	-0.26
652.129	-1.76
652.576	3.74
653.023	10.84
653.47	16.84
653.917	0.94
654.363	14.94
654.81	0.44
655.257	0.04
655.704	7.24
656.151	-3.56
656.598	10.54
657.044	3.74
657.491	-0.56
657.938	0.64
658.385	6.24
658.831	7.04
659.278	10.04
659.724	1.34
660.171	5.44
660.618	2.74
661.064	9.04
661.511	-1.96
661.957	4.14
662.404	-1.06
662.85	6.34
663.296	6.54
663.743	6.54
664.189	1.54
664.635	1.24
665.082	-0.36
665.528	4.64
665.974	0.34
666.42	-2.16
666.867	7.04
667.313	-0.36
667.759	3.34
668.205	4.14
668.651	5.34
669.097	5.84
669.543	-3.46
669.989	-1.76
670.435	6.94
670.881	3.14
671.327	3.14
671.773	7.54
672.219	4.84
672.665	11.34
673.11	-1.86
673.556	4.14
674.002	3.44
674.448	1.94
674.893	1.84
675.339	1.04
675.785	2.44
676.23	1.74
676.676	-4.26
677.122	-1.56
677.567	0.44
678.013	7.54
678.458	4.64
678.904	-3.76
679.349	-10.36
679.794	6.14
680.24	1.64
680.685	-1.36
681.131	-1.86
681.576	2.94
682.021	6.74
682.466	-1.56
682.912	-7.06
683.357	-8.06
683.802	2.64
684.247	3.84
684.692	1.14
685.137	4.34
685.583	7.04
686.028	3.44
686.473	-2.76
686.918	-5.26
687.363	1.84
687.807	9.24
688.252	1.74
688.697	6.14
689.142	0.74
689.587	-1.66
690.032	-10.46
690.477	4.04
690.921	-5.66
691.366	3.84
691.811	-1.86
692.255	4.44
692.7	9.04
693.145	6.34
693.589	10.94
694.034	26.44
694.478	42.84
694.923	55.44
695.367	76.74
695.812	24.84
696.256	6.64
696.701	2.14
697.145	0.64
697.59	-0.86
698.034	-4.96
698.478	6.24
698.922	0.24
699.367	-1.16
699.811	4.04
700.255	3.84
700.699	6.34
701.143	4.64
701.588	12.14
702.032	10.94
702.476	4.04
702.92	2.44
703.364	-2.96
703.808	15.84
704.252	21.94
704.696	40.44
705.14	52.74
705.584	69.54
706.027	34.54
706.471	1.54
706.915	-1.26
707.359	-6.26
707.803	-4.16
708.246	2.44
708.69	5.74
709.134	10.34
709.577	2.94
710.021	5.84
710.465	0.64
710.908	-2.86
711.352	-0.66
711.795	1.34
712.239	8.74
712.682	-1.46
713.126	1.74
713.569	7.14
714.012	7.14
714.456	1.14
714.899	-4.96
715.342	-6.76
715.786	-0.46
716.229	5.14
716.672	3.94
717.115	-3.56
717.558	0.24
718.002	0.84
718.445	1.24
718.888	5.34
719.331	-1.26
719.774	-1.16
720.217	4.04
720.66	-3.36
721.103	1.14
721.546	-0.06
721.989	3.44
722.432	-11.06
722.874	0.44
723.317	-4.46
723.76	-4.26
724.203	3.74
724.645	3.34
725.088	11.44
725.531	2.94
725.974	13.64
726.416	10.54
726.859	4.34
727.301	-4.36
727.744	2.24
728.187	-6.96
728.629	5.94
729.071	0.34
729.514	2.54
729.956	2.84
730.399	3.84
730.841	2.54
731.283	1.84
731.726	0.94
732.168	1.64
732.61	-2.66
733.053	1.84
733.495	-0.66
733.937	-4.86
734.379	4.04
734.821	6.24
735.263	2.64
735.705	15.64
736.148	41.34
736.59	84.94
737.032	99.44
737.474	80.94
737.916	10.34
738.357	5.84
738.799	5.64
739.241	-0.56
739.683	-5.36
740.125	-1.96
740.567	-2.66
741.008	8.64
741.45	9.94
741.892	11.94
742.334	6.64
742.775	-1.26
743.217	-1.96
743.658	0.14
744.1	2.74
744.542	-0.86
744.983	1.94
745.425	-2.56
745.866	4.64
746.307	0.64
746.749	4.64
747.19	-0.56
747.632	7.24
748.073	14.74
748.514	59.74
748.956	93.44
749.397	113.94
749.838	98.34
750.279	101.54
750.72	35.44
751.162	13.24
751.603	3.54
752.044	2.74
752.485	-6.66
752.926	-1.26
753.367	1.64
753.808	-0.16
754.249	0.34
754.69	-0.86
755.131	-4.06
755.572	-0.06
756.013	-7.56
756.453	-2.06
756.894	3.44
757.335	1.34
757.776	-0.96
758.216	-3.46
758.657	2.54
759.098	-7.76
759.538	-6.06
759.979	-7.26
760.42	-3.06
760.86	5.74
761.301	44.64
761.741	124.04
762.182	190.34
762.622	132.34
763.063	26.74
763.503	10.24
763.943	1.74
764.384	4.04
764.824	2.04
765.264	0.44
765.705	2.24
766.145	-3.16
766.585	-5.26
767.025	-6.36
767.465	-9.16
767.906	-1.66
768.346	1.64
768.786	-3.16
769.226	-1.46
769.666	9.54
770.106	9.24
770.546	49.14
770.986	94.34
771.426	74.24
771.866	20.24
772.306	5.64
772.745	1.34
773.185	-3.66
773.625	-1.66
774.065	-3.96
774.505	2.14
774.944	-4.16
775.384	0.34
775.824	2.54
776.263	4.24
776.703	-4.06
777.142	-2.36
777.582	-5.86
778.021	-3.76
778.461	0.14
778.9	5.64
779.34	-2.56
779.779	-3.36
780.219	-5.76
780.658	-10.36
781.097	-5.16
781.537	-1.66
781.976	-8.56
782.415	-3.46
782.855	-9.56
783.294	-7.26
783.733	-2.16
784.172	2.14
784.611	-13.06
785.05	-3.46
785.489	-5.66
785.928	-1.86
786.367	1.44
786.806	-0.66
787.245	2.04
787.684	-7.86
788.123	4.24
788.562	-5.66
789.001	-4.06
789.44	-3.36
789.879	1.04
790.317	-3.16
790.756	-1.16
791.195	0.94
791.634	-1.36
792.072	4.94
792.511	6.34
792.95	22.34
793.388	65.24
793.827	61.34
794.265	12.34
794.704	0.54
795.142	7.74
795.581	1.14
796.019	2.74
796.458	-1.46
796.896	-9.26
797.334	0.04
797.773	2.74
798.211	11.14
798.649	16.14
799.087	32.74
799.526	55.34
799.964	66.54
800.402	69.54
800.84	15.84
801.278	0.74
801.716	-1.56
802.154	-0.36
802.592	5.74
803.03	-2.66
803.468	-9.76
803.906	1.64
804.344	1.84
804.782	2.14
805.22	-6.46
805.658	-7.96
806.096	7.14
806.533	1.94
806.971	4.14
807.409	2.54
807.847	-2.96
808.284	5.44
808.722	50.74
809.16	101.84
809.597	87.84
810.035	151.24
810.472	176.74
810.91	57.14
811.347	14.24
811.785	8.04
812.222	8.54
812.66	0.34
813.097	-2.16
813.535	-2.56
813.972	0.34
814.409	0.54
814.846	-6.96
815.284	0.34
815.721	3.54
816.158	0.44
816.595	-3.16
817.032	-0.76
817.47	3.54
817.907	5.54
818.344	-3.36
818.781	-6.06
819.218	-8.46
819.655	-7.56
820.092	1.34
820.529	-6.16
820.966	-3.36
821.403	-6.36
821.839	-4.86
822.276	-4.66
822.713	-2.86
823.15	-10.06
823.587	-2.96
824.023	-3.06
824.46	7.14
824.897	29.44
825.333	45.54
825.77	16.44
826.206	-0.86
826.643	4.94
827.08	-2.56
827.516	-7.36
827.953	-1.96
828.389	-0.06
828.825	-4.56
829.262	-3.66
829.698	-2.96
830.135	-1.96
830.571	0.14
831.007	-3.86
831.443	3.44
831.88	-4.86
832.316	-4.76
832.752	-3.76
833.188	2.14
833.624	-2.36
834.06	2.34
834.497	-1.96
834.933	1.64
835.369	7.64
835.805	-10.36
836.241	-2.86
836.677	1.04
837.112	-2.56
837.548	-6.26
837.984	-2.46
838.42	-6.66
838.856	5.74
839.292	45.94
839.727	78.64
840.163	30.54
840.599	25.64
841.034	68.04
841.47	67.14
841.906	24.84
842.341	2.04
842.777	5.34
843.212	-1.16
843.648	-0.56
844.083	-1.96
844.519	-5.66
844.954	-1.66
845.39	-12.56
845.825	-4.46
846.261	-5.46
846.696	-7.56
847.131	-10.36
847.566	4.14
848.002	-7.66
848.437	-11.06
848.872	-5.86
849.307	-5.36
849.742	-2.46
850.177	1.24
850.613	16.84
851.048	28.34
851.483	2.84
851.918	-0.96
852.353	-0.76
852.788	-13.46
853.223	-2.36
853.657	-0.76
854.092	-2.16
854.527	-6.06
854.962	-0.16
855.397	0.84
855.832	0.24
856.266	3.74
856.701	-1.66
857.136	-0.46
857.57	-2.06
858.005	-13.66
858.44	3.14
858.874	-5.36
859.309	4.44
859.743	-8.06
860.178	-2.46
860.612	-6.66
861.047	-0.06
861.481	-1.76
861.915	-7.36
862.35	-4.76
862.784	-5.56
863.218	4.34
863.653	-6.26
864.087	5.04
864.521	-3.66
864.955	-1.26
865.39	6.54
865.824	4.94
866.258	0.24
866.692	-4.46
867.126	-6.96
867.56	-1.96
867.994	-5.06
868.428	-8.16
868.862	1.74
869.296	1.04
869.73	3.54
870.164	-2.66
870.598	-8.36
871.031	-3.06
871.465	-2.66
871.899	0.94
872.333	-2.66
872.766	-5.86
873.2	0.24
873.634	4.34
874.067	-2.26
874.501	-6.16
874.935	-0.46
875.368	-2.86
875.802	-9.76
876.235	-1.96
876.669	2.84
877.102	-7.06
877.535	4.44
877.969	0.84
878.402	-1.26
878.836	-6.76
879.269	-0.76
879.702	-1.16
880.135	-6.36
880.569	-9.36
881.002	-1.36
881.435	-3.86
881.868	-5.06
882.301	1.64
882.734	-6.96
883.167	-2.86
883.601	-1.06
884.034	0.54
884.467	-2.56
884.899	-5.36
885.332	-9.46
885.765	-8.56
886.198	-3.26
886.631	-6.06
887.064	-0.26
887.497	-2.96
887.929	2.54
888.362	-8.66
888.795	-7.36
889.228	-3.66
889.66	-1.16
890.093	-0.86
890.526	-2.96
890.958	-3.66
891.391	-3.46
891.823	2.34
892.256	-2.66
892.688	-6.16
893.121	-3.16
893.553	-3.26
893.985	4.34
894.418	1.64
894.85	-6.16
895.282	0.74
895.715	-6.86
896.147	-1.96
896.579	0.14
897.011	-5.96
897.444	0.54
897.876	-9.26
898.308	1.94
898.74	-3.56
899.172	-6.76
899.604	-0.36
900.036	1.64
900.468	-6.26
900.9	-1.26
901.332	-3.76
901.764	-9.66
902.196	-0.96
902.628	0.14
903.06	-5.36
903.491	-7.56
903.923	-4.36
904.355	-4.06
904.787	-0.66
905.218	-4.86
905.65	-3.46
906.082	-4.46
906.513	-7.46
906.945	-1.66
907.376	-6.26
907.808	0.44
908.239	-2.46
908.671	-5.66
909.102	-1.66
909.534	-2.96
909.965	-0.36
910.397	-0.56
910.828	12.54
911.259	16.24
911.691	2.94
912.122	2.04
912.553	-4.86
912.984	-3.66
913.415	-4.86
913.847	-4.16
914.278	-10.06
914.709	-7.16
915.14	-0.06
915.571	-1.26
916.002	-5.06
916.433	-0.26
916.864	1.44
917.295	-4.36
917.726	2.34
918.157	-7.76
918.587	4.24
919.018	-5.06
919.449	-3.76
919.88	-1.86
920.311	-2.46
920.741	-7.56
921.172	3.54
921.603	-1.66
922.033	-4.96
922.464	5.24
922.895	-2.56
923.325	0.34
923.756	-2.56
924.186	-4.06
924.617	-6.86
925.047	-6.26
925.478	-6.56
925.908	-5.26
926.338	-2.96
926.769	-6.16
927.199	5.54
927.629	-6.76
928.06	-5.86
928.49	-6.46
928.92	-2.46
929.35	4.24
929.78	2.44
930.21	-3.46
930.641	-4.26
931.071	1.34
931.501	-8.16
931.931	3.34
932.361	-0.66
932.791	-0.76
933.221	-3.56
933.651	-3.86
934.08	-6.16
934.51	5.04
934.94	-7.06
935.37	1.74
935.8	3.84
936.229	2.74
936.659	2.04
937.089	-2.96
937.519	-5.66
937.948	-0.86
938.378	-4.36
938.807	-3.16
939.237	2.94
939.666	5.84
940.096	-9.16
940.525	-1.96
940.955	1.34
941.384	-0.76
941.814	-11.96
942.243	-6.46
942.672	-4.26
943.102	-9.36
943.531	-7.16
943.96	-2.76
944.39	2.04
944.819	3.14
945.248	-2.16
945.677	-2.66
946.106	-1.46
946.535	3.24
946.964	-6.96
947.393	3.14
947.822	-8.56
948.251	-7.56
948.68	-2.66
949.109	4.14
949.538	-2.56
949.967	-1.06
950.396	-1.96
950.825	-7.66
951.254	-5.06
951.682	-10.26
952.111	0.04
952.54	0.44
952.969	-6.66
953.397	-11.66
953.826	-6.06
954.254	-9.46
954.683	-2.66
955.112	-7.16
955.54	-3.56
955.969	-2.76
956.397	-4.66
956.826	-2.96
957.254	-3.06
957.682	-2.46
958.111	-0.06
958.539	-4.76
958.967	-1.76
959.396	-3.56
959.824	1.04
960.252	-0.36
960.68	-11.46
961.109	-6.56
961.537	-5.26
961.965	-2.66
962.393	-7.26
962.821	-11.36
963.249	0.44
963.677	3.34
964.105	-11.36
964.533	-7.86
964.961	-0.76
965.389	4.84
965.817	-2.36
966.245	-3.26
966.672	-8.56
967.1	-10.36
967.528	0.04
967.956	-6.96
968.383	-3.36
968.811	-2.56
969.239	-6.66
969.666	-7.76
970.094	-1.36
970.522	-5.76
970.949	-7.16
971.377	-5.96
971.804	-2.56
972.232	-5.26
972.659	-0.86
973.087	-5.06
973.514	-4.96
973.941	-13.66
974.369	-7.26
974.796	-2.16
975.223	2.64
975.651	-2.56
976.078	0.24
976.505	-3.16
976.932	-7.56
977.359	-2.96
977.786	-3.76
978.214	-10.16
978.641	-12.16
979.068	-7.26
979.495	-3.76
979.922	0.44
980.349	-2.26
980.776	-1.06
981.202	-0.36
981.629	6.04
982.056	-0.46
982.483	-3.86
982.91	0.54
983.337	-6.56
983.763	-1.66
984.19	-7.76
984.617	-7.46
985.043	-11.46
985.47	-3.86
985.897	-7.36
986.323	-9.46
986.75	5.04
987.176	-6.26
987.603	-3.96
988.029	-4.46
988.456	-5.36
988.882	-3.06
989.308	-14.56
989.735	-8.46
990.161	-4.16
990.587	-6.66
991.014	-7.56
991.44	6.64
991.866	-0.66
992.292	-2.06
992.719	-6.96
993.145	3.54
993.571	-12.16
993.997	-5.36
994.423	-7.86
994.849	-7.96
995.275	-7.96
995.701	-3.36
996.127	-5.26
996.553	2.24
996.979	-2.66
997.405	1.54
997.83	-6.56
998.256	-12.36
998.682	-8.36
999.108	-7.26
999.534	-4.86
999.959	3.24
1000.385	-2.96
1000.811	-5.16
1001.236	-5.06
1001.662	-11.36
1002.087	-8.96
1002.513	-5.26
1002.938	-5.36
1003.364	-2.96
1003.789	-2.16
1004.215	-1.16
1004.64	-0.96
1005.066	-0.36
1005.491	-2.36
1005.916	-1.66
1006.342	-4.56
1006.767	-9.76
1007.192	0.34
1007.617	-10.56
1008.042	-8.96
1008.468	-10.96
1008.893	-5.96
1009.318	-12.36
1009.743	-4.36
1010.168	-4.16
1010.593	-2.86
1011.018	-17.26
1011.443	-4.26
1011.868	-3.16
1012.293	-0.86
1012.718	-11.36
1013.143	-0.96
1013.567	-7.76
1013.992	-7.86
1014.417	-15.46
1014.842	-4.46
1015.267	-3.96
1015.691	-8.86
1016.116	8.14
1016.541	-3.06
1016.965	-1.56
1017.39	2.24
1017.814	-3.76
1018.239	-1.76
1018.663	-7.16
1019.088	-11.76
1019.512	2.84
1019.937	-0.66
1020.361	-5.66
1020.785	-10.66
1021.21	-0.96
1021.634	-2.46
1022.058	-2.86
1022.483	3.84
1022.907	-1.46
1023.331	-7.66
1023.755	-3.76
1024.179	-7.66
1024.604	-10.16
1025.028	-9.56
1025.452	-3.36
1025.876	-2.26
1026.3	2.04
1026.724	-10.36
1027.148	-8.86
1027.572	-8.06
1027.996	-2.96
1028.42	-3.56
1028.843	-8.86
1029.267	-7.56
1029.691	-0.06
1030.115	-3.76
1030.539	-4.56
1030.962	-1.66
1031.386	-6.26
1031.81	-1.06
1032.233	2.74
1032.657	-2.66
1033.08	5.04
1033.504	-3.16
1033.927	-7.86
1034.351	-6.36
1034.774	-9.06
1035.198	-3.46
1035.621	-11.16
1036.045	-1.56
1036.468	5.14
1036.891	-8.16
1037.315	0.04
1037.738	-14.16
1038.161	-0.86
1038.584	-6.16
1039.008	-10.86
1039.431	-7.26
1039.854	-4.16
1040.277	-8.16
1040.7	-8.36
1041.123	-4.66
1041.546	-9.36
1041.969	-4.46
1042.392	-6.76
1042.815	2.44
1043.238	2.94
1043.661	2.04
1044.084	-8.16
1044.507	-5.06
1044.93	-4.56
1045.352	-4.16
1045.775	-2.86
1046.198	-9.46
1046.621	-4.56
1047.043	-9.26
1047.466	8.04
1047.889	-3.36
1048.311	-7.46
1048.734	-1.06
1049.156	0.74
1049.579	1.44
1050.001	-8.76
1050.424	-0.66
1050.846	-9.06
1051.269	-9.86
1051.691	-2.06
1052.113	-7.26
1052.536	-2.36
1052.958	4.74
1053.38	-3.56
1053.802	-8.86
1054.225	2.94
1054.647	-13.86
1055.069	-1.66
1055.491	-0.06
1055.913	-1.96
1056.335	-0.76
1056.757	-4.76
1057.179	-11.46
1057.601	0.04
1058.023	-2.66
1058.445	-9.56
1058.867	-6.26
1059.289	0.14
1059.711	-7.06
1060.133	-4.76
1060.555	-10.56
1060.976	-8.36
1061.398	-3.76
1061.82	-11.36
1062.241	-5.86
1062.663	-6.06
1063.085	-7.36
1063.506	-0.26
1063.928	-4.46
1064.35	4.64
1064.771	-10.76
1065.193	-3.46
1065.614	-4.66
1066.035	1.34
1066.457	-7.96
1066.878	-1.56
1067.3	-3.36
1067.721	-4.86
1068.142	-9.26
1068.564	-2.66
1068.985	-7.86
1069.406	-5.36
1069.827	-4.56
1070.248	6.44
1070.67	-8.46
1071.091	-2.76
1071.512	-8.76
1071.933	-8.86
1072.354	-9.16
1072.775	-9.86
1073.196	-6.16
1073.617	-4.96
1074.038	-3.86
1074.459	-2.76
1074.88	0.24
1075.3	0.44
1075.721	-2.06
1076.142	-0.96
1076.563	-1.36
1076.983	-6.16
1077.404	-7.86
1077.825	-10.56
1078.246	-5.66
1078.666	-7.56
1079.087	-6.36
1079.507	-4.06
1079.928	-2.36
1080.348	0.24
1080.769	-6.56
1081.189	-1.66
1081.61	-3.76
1082.03	-9.66
1082.451	-8.96
1082.871	-3.26
1083.291	-6.16
1083.711	-7.46
1084.132	-3.56
1084.552	-7.26
1084.972	-3.36
1085.392	-13.96
1085.813	-9.16
1086.233	-11.66
1086.653	-7.26
1087.073	1.04
1087.493	-4.66
1087.913	-4.86
1088.333	-6.96
1088.753	-1.46
1089.173	2.54
1089.593	-6.36
1090.013	-0.76
1090.433	-0.46
1090.852	-3.06
1091.272	4.94
1091.692	1.04
1092.112	-4.26
1092.531	-12.76
1092.951	-6.16
1093.371	0.74
1093.79	-0.86
1094.21	-1.36
1094.63	-3.26
1095.049	-1.56
1095.469	2.04
1095.888	0.44
1096.308	2.84
1096.727	8.14
1097.146	-9.66
1097.566	3.54
1097.985	-6.96
1098.405	-5.86
1098.824	-7.06
1099.243	-4.16
1099.662	-9.86
1100.082	-0.86
1100.501	-0.46
1100.92	-7.06
1101.339	-4.06
1101.758	-2.16
