Data from 20171114-ORNL-Ar_H_NY_Subt18_08-07-40-989.txt Node
Date: Tue Nov 14 08:07:40 EST 2017
User: Ender
Spectrometer: HR+D1039
Trigger mode: 0
Integration Time (sec): 2.730000E-2
Scans to average: 10
Electric dark correction enabled: true
Nonlinearity correction enabled: false
Boxcar width: 0
XAxis mode: Wavelengths
Number of Pixels in Spectrum: 2048
>>>>>Begin Spectral Data<<<<<
187.836	-3.05
188.309	-3.05
188.782	-3.05
189.255	-1.05
189.728	2.25
190.201	7.65
190.674	0.15
191.147	-1.45
191.619	-10.35
192.092	2.65
192.565	1.65
193.038	-0.45
193.511	2.85
193.984	0.05
194.456	1.55
194.929	-4.75
195.402	0.25
195.874	2.05
196.347	2.65
196.82	-5.55
197.292	3.65
197.765	0.15
198.237	-4.05
198.71	2.45
199.182	-4.55
199.655	4.85
200.127	7.85
200.6	-1.15
201.072	-10.15
201.544	-5.25
202.017	1.55
202.489	4.05
202.961	-4.65
203.433	-6.15
203.906	-10.75
204.378	-9.85
204.85	-2.45
205.322	-5.05
205.794	0.95
206.266	-3.25
206.739	-4.95
207.211	5.55
207.683	-5.45
208.155	-3.75
208.627	-5.85
209.099	-2.35
209.57	-9.55
210.042	-5.35
210.514	-1.65
210.986	0.45
211.458	-14.15
211.93	-8.25
212.402	-2.25
212.873	-6.75
213.345	-5.35
213.817	-15.85
214.288	-0.15
214.76	-11.75
215.232	-5.25
215.703	-3.65
216.175	-4.85
216.646	-1.65
217.118	-6.15
217.589	-9.95
218.061	-2.65
218.532	-3.55
219.004	-1.55
219.475	-4.65
219.946	-1.55
220.418	-2.95
220.889	-1.85
221.36	-4.35
221.832	-1.25
222.303	-5.35
222.774	0.05
223.245	-4.95
223.717	1.25
224.188	-9.15
224.659	-10.45
225.13	-7.45
225.601	-2.85
226.072	1.65
226.543	-2.35
227.014	2.55
227.485	-0.95
227.956	-11.85
228.427	-4.45
228.898	-3.65
229.369	3.85
229.839	-2.55
230.31	-4.95
230.781	0.35
231.252	-8.25
231.722	-5.05
232.193	-0.05
232.664	4.15
233.135	-5.45
233.605	0.85
234.076	-6.85
234.546	-0.25
235.017	-1.45
235.487	1.65
235.958	-2.95
236.428	0.55
236.899	1.75
237.369	3.65
237.84	-3.35
238.31	2.45
238.78	1.15
239.251	-2.55
239.721	0.15
240.191	1.85
240.662	-1.25
241.132	6.95
241.602	-0.45
242.072	4.65
242.542	2.85
243.013	2.55
243.483	5.35
243.953	2.65
244.423	-8.05
244.893	0.95
245.363	8.05
245.833	3.55
246.303	-0.25
246.773	8.05
247.243	3.15
247.712	-0.55
248.182	2.55
248.652	5.65
249.122	-6.25
249.592	6.45
250.061	16.45
250.531	22.55
251.001	10.05
251.471	18.25
251.94	15.45
252.41	7.55
252.879	-1.85
253.349	8.15
253.818	5.45
254.288	5.65
254.757	1.55
255.227	-0.55
255.696	1.75
256.166	3.45
256.635	4.25
257.105	9.05
257.574	9.05
258.043	8.65
258.513	10.65
258.982	12.65
259.451	0.65
259.92	15.05
260.389	1.15
260.859	12.65
261.328	3.15
261.797	9.55
262.266	7.95
262.735	11.45
263.204	4.25
263.673	6.95
264.142	0.75
264.611	-9.25
265.08	-1.85
265.549	-1.65
266.018	10.85
266.487	-5.45
266.955	-0.75
267.424	-1.55
267.893	5.25
268.362	2.05
268.83	2.15
269.299	11.55
269.768	2.65
270.236	10.05
270.705	4.75
271.174	7.25
271.642	6.85
272.111	6.95
272.579	14.45
273.048	21.25
273.516	26.95
273.985	25.25
274.453	26.05
274.922	15.65
275.39	7.05
275.858	8.95
276.327	8.85
276.795	15.75
277.263	8.25
277.731	33.65
278.2	46.55
278.668	53.55
279.136	46.45
279.604	19.25
280.072	13.15
280.54	5.55
281.008	9.05
281.477	10.95
281.945	14.75
282.413	7.45
282.881	8.55
283.348	11.55
283.816	15.55
284.284	15.55
284.752	19.75
285.22	10.45
285.688	9.35
286.156	18.65
286.623	35.85
287.091	46.15
287.559	22.35
288.026	14.75
288.494	12.05
288.962	5.95
289.429	3.05
289.897	12.95
290.364	9.75
290.832	8.25
291.3	10.95
291.767	15.75
292.234	16.05
292.702	8.95
293.169	12.75
293.637	24.85
294.104	20.35
294.571	10.25
295.039	13.95
295.506	14.35
295.973	19.55
296.44	12.55
296.908	11.35
297.375	9.55
297.842	18.15
298.309	15.25
298.776	13.75
299.243	11.35
299.71	7.55
300.177	20.55
300.644	22.45
301.111	13.95
301.578	24.95
302.045	12.05
302.512	20.25
302.979	20.25
303.446	15.45
303.913	18.75
304.379	10.15
304.846	21.95
305.313	30.15
305.78	19.45
306.246	26.25
306.713	22.95
307.18	20.75
307.646	28.45
308.113	26.05
308.579	16.25
309.046	24.85
309.512	19.35
309.979	17.75
310.445	25.35
310.912	21.25
311.378	25.55
311.845	19.45
312.311	23.85
312.777	32.95
313.244	30.75
313.71	35.75
314.176	26.85
314.642	33.35
315.109	31.05
315.575	33.85
316.041	27.75
316.507	27.35
316.973	32.45
317.439	33.05
317.905	32.25
318.371	29.85
318.837	35.35
319.303	30.45
319.769	31.75
320.235	25.05
320.701	30.15
321.167	28.25
321.633	29.95
322.099	39.75
322.564	43.05
323.03	33.55
323.496	29.05
323.962	38.15
324.427	33.75
324.893	39.85
325.359	31.85
325.824	27.95
326.29	30.85
326.755	30.75
327.221	34.15
327.686	39.25
328.152	39.65
328.617	38.65
329.083	43.55
329.548	49.65
330.014	44.55
330.479	33.45
330.944	36.45
331.41	40.85
331.875	41.25
332.34	38.45
332.805	39.95
333.271	41.75
333.736	38.85
334.201	48.25
334.666	46.85
335.131	47.95
335.596	48.75
336.061	40.35
336.526	36.55
336.991	41.15
337.456	53.05
337.921	39.35
338.386	39.35
338.851	38.45
339.316	46.75
339.781	41.55
340.246	42.45
340.711	44.65
341.175	41.45
341.64	43.35
342.105	48.45
342.569	44.55
343.034	48.35
343.499	50.65
343.963	49.85
344.428	60.35
344.893	62.55
345.357	56.15
345.822	56.55
346.286	55.05
346.751	66.65
347.215	60.15
347.679	59.25
348.144	88.65
348.608	72.35
349.073	64.05
349.537	69.55
350.001	69.45
350.465	78.05
350.93	73.25
351.394	73.15
351.858	62.25
352.322	79.85
352.786	82.35
353.25	94.85
353.715	100.75
354.179	93.65
354.643	108.75
355.107	111.65
355.571	99.65
356.035	93.85
356.498	104.15
356.962	116.75
357.426	118.75
357.89	106.65
358.354	91.65
358.818	73.55
359.281	72.95
359.745	64.25
360.209	70.45
360.673	67.45
361.136	73.25
361.6	78.25
362.064	78.35
362.527	76.15
362.991	82.55
363.454	75.65
363.918	72.05
364.381	75.65
364.845	72.15
365.308	75.65
365.772	78.65
366.235	78.55
366.698	76.15
367.162	85.35
367.625	83.05
368.088	80.75
368.552	81.45
369.015	86.95
369.478	90.65
369.941	98.85
370.404	89.75
370.867	95.15
371.331	91.55
371.794	104.65
372.257	104.05
372.72	105.85
373.183	101.65
373.646	101.85
374.109	96.95
374.572	101.25
375.035	101.25
375.497	105.25
375.96	104.55
376.423	88.65
376.886	108.15
377.349	102.15
377.811	94.05
378.274	102.15
378.737	100.45
379.199	106.15
379.662	110.15
380.125	111.15
380.587	107.85
381.05	115.55
381.512	114.35
381.975	122.75
382.437	123.55
382.9	114.75
383.362	125.05
383.825	132.95
384.287	136.85
384.75	134.15
385.212	137.95
385.674	130.95
386.136	128.25
386.599	119.75
387.061	121.85
387.523	126.95
387.985	127.75
388.447	141.55
388.91	137.65
389.372	150.15
389.834	146.45
390.296	133.45
390.758	142.85
391.22	164.65
391.682	202.95
392.144	286.55
392.606	220.65
393.068	152.05
393.529	159.65
393.991	144.15
394.453	138.95
394.915	144.25
395.377	188.15
395.838	201.85
396.3	147.75
396.762	135.25
397.224	125.95
397.685	127.05
398.147	122.15
398.608	122.55
399.07	124.25
399.531	122.75
399.993	138.75
400.454	145.35
400.916	137.25
401.377	136.45
401.839	148.15
402.3	149.55
402.762	155.75
403.223	169.65
403.684	161.15
404.145	154.45
404.607	150.05
405.068	156.75
405.529	163.35
405.99	180.65
406.451	165.85
406.913	167.45
407.374	157.35
407.835	155.95
408.296	155.35
408.757	164.25
409.218	186.95
409.679	170.75
410.14	175.45
410.601	172.55
411.062	170.75
411.522	179.05
411.983	185.35
412.444	169.35
412.905	169.25
413.366	176.65
413.826	179.55
414.287	211.85
414.748	258.75
415.208	237.85
415.669	202.65
416.13	201.85
416.59	200.15
417.051	209.85
417.511	210.25
417.972	230.35
418.432	234.35
418.893	279.45
419.353	240.55
419.814	190.05
420.274	176.65
420.734	173.95
421.195	189.95
421.655	188.35
422.115	188.85
422.576	188.35
423.036	191.25
423.496	203.25
423.956	214.55
424.416	221.05
424.876	254.55
425.336	255.95
425.797	256.45
426.257	248.45
426.717	235.95
427.177	228.85
427.637	221.65
428.097	225.85
428.556	237.55
429.016	258.45
429.476	260.55
429.936	276.45
430.396	269.25
430.856	275.15
431.315	300.75
431.775	345.25
432.235	367.55
432.694	339.95
433.154	345.95
433.614	376.95
434.073	337.25
434.533	269.65
434.993	263.75
435.452	278.85
435.912	281.95
436.371	277.35
436.83	270.15
437.29	265.15
437.749	241.25
438.209	243.95
438.668	269.15
439.127	280.85
439.587	252.35
440.046	238.65
440.505	248.55
440.964	273.95
441.424	312.75
441.883	306.75
442.342	249.45
442.801	215.35
443.26	217.45
443.719	218.75
444.178	213.05
444.637	204.95
445.096	213.85
445.555	221.35
446.014	220.75
446.473	214.85
446.932	231.25
447.391	222.45
447.849	222.35
448.308	213.85
448.767	217.75
449.226	227.65
449.685	229.45
450.143	241.35
450.602	235.25
451.061	214.85
451.519	224.55
451.978	227.15
452.436	225.65
452.895	227.75
453.353	241.95
453.812	234.55
454.27	234.25
454.729	235.35
455.187	234.85
455.646	242.85
456.104	243.15
456.562	255.75
457.021	270.15
457.479	257.45
457.937	266.05
458.395	260.15
458.854	244.85
459.312	249.45
459.77	266.25
460.228	253.15
460.686	240.45
461.144	244.75
461.602	233.95
462.06	235.05
462.518	251.15
462.976	252.85
463.434	261.45
463.892	253.75
464.35	264.65
464.808	277.05
465.266	257.95
465.724	264.95
466.181	268.45
466.639	261.95
467.097	284.45
467.555	293.45
468.012	298.35
468.47	300.55
468.928	328.35
469.385	335.75
469.843	342.05
470.3	348.35
470.758	353.95
471.215	373.05
471.673	399.95
472.13	407.65
472.588	401.95
473.045	369.25
473.503	374.35
473.96	389.15
474.417	399.45
474.875	425.65
475.332	469.95
475.789	453.55
476.246	452.75
476.704	471.35
477.161	500.35
477.618	506.05
478.075	548.85
478.532	610.65
478.989	671.45
479.446	784.35
479.903	755.65
480.36	800.05
480.817	841.85
481.274	957.05
481.731	1055.45
482.188	1133.95
482.645	1261.45
483.102	1380.65
483.558	1498.35
484.015	1545.75
484.472	1528.75
484.929	1470.65
485.385	1432.95
485.842	1396.05
486.299	1329.25
486.755	1265.15
487.212	1067.25
487.668	896.85
488.125	835.05
488.582	761.15
489.038	727.35
489.494	685.35
489.951	667.45
490.407	652.55
490.864	637.05
491.32	635.15
491.776	629.35
492.233	635.15
492.689	599.95
493.145	589.35
493.602	585.65
494.058	599.35
494.514	608.85
494.97	627.45
495.426	634.65
495.882	620.05
496.338	601.65
496.794	610.75
497.251	597.05
497.707	625.25
498.163	624.45
498.618	637.25
499.074	629.55
499.53	661.25
499.986	675.15
500.442	644.25
500.898	626.85
501.354	627.35
501.809	628.05
502.265	634.75
502.721	648.65
503.177	664.35
503.632	658.55
504.088	665.55
504.543	701.65
504.999	699.85
505.455	652.45
505.91	623.95
506.366	631.35
506.821	618.95
507.277	614.75
507.732	626.65
508.187	619.85
508.643	638.05
509.098	633.25
509.553	641.85
510.009	655.45
510.464	658.75
510.919	676.75
511.375	678.75
511.83	697.45
512.285	706.45
512.74	742.35
513.195	767.95
513.65	762.65
514.105	759.85
514.56	757.45
515.015	777.25
515.47	803.55
515.925	778.65
516.38	774.65
516.835	787.15
517.29	770.75
517.745	755.05
518.2	758.85
518.655	733.65
519.109	721.45
519.564	739.55
520.019	729.25
520.474	706.75
520.928	714.55
521.383	708.45
521.838	709.15
522.292	703.05
522.747	695.25
523.201	699.65
523.656	683.75
524.11	696.75
524.565	689.85
525.019	687.85
525.474	689.75
525.928	695.75
526.382	687.05
526.837	690.95
527.291	701.85
527.745	688.75
528.2	695.65
528.654	679.55
529.108	683.75
529.562	685.55
530.016	686.95
530.47	694.45
530.925	679.45
531.379	682.05
531.833	697.25
532.287	698.25
532.741	691.15
533.195	697.95
533.649	702.65
534.103	705.05
534.556	696.15
535.01	703.75
535.464	702.95
535.918	708.55
536.372	709.35
536.826	703.65
537.279	701.85
537.733	692.75
538.187	714.85
538.64	703.45
539.094	718.05
539.548	726.55
540.001	720.95
540.455	714.65
540.908	732.05
541.362	730.65
541.815	738.45
542.269	754.65
542.722	748.45
543.175	764.15
543.629	750.05
544.082	785.35
544.536	775.25
544.989	776.45
545.442	784.85
545.895	787.05
546.349	778.95
546.802	780.05
547.255	797.95
547.708	804.05
548.161	803.85
548.614	811.15
549.067	818.35
549.52	803.05
549.973	794.85
550.426	795.95
550.879	779.35
551.332	795.75
551.785	793.55
552.238	793.15
552.691	823.25
553.144	825.25
553.596	848.75
554.049	851.45
554.502	894.55
554.955	904.35
555.407	903.75
555.86	895.75
556.313	880.75
556.765	876.05
557.218	877.65
557.67	864.05
558.123	872.65
558.576	855.95
559.028	872.65
559.48	885.85
559.933	861.85
560.385	824.25
560.838	800.35
561.29	783.65
561.742	777.15
562.195	755.95
562.647	764.65
563.099	773.35
563.551	764.95
564.004	781.65
564.456	768.05
564.908	763.15
565.36	744.15
565.812	730.55
566.264	715.25
566.716	718.55
567.168	706.55
567.62	726.25
568.072	695.85
568.524	689.35
568.976	694.75
569.428	685.75
569.88	678.25
570.332	682.95
570.784	688.55
571.235	675.65
571.687	691.85
572.139	692.35
572.59	709.35
573.042	703.85
573.494	704.05
573.945	694.05
574.397	683.55
574.849	692.65
575.3	689.05
575.752	680.05
576.203	673.95
576.655	673.75
577.106	660.15
577.557	666.85
578.009	654.55
578.46	660.15
578.912	659.35
579.363	656.65
579.814	669.25
580.265	655.45
580.717	667.45
581.168	668.55
581.619	680.85
582.07	676.55
582.521	666.45
582.972	671.45
583.423	682.05
583.875	685.65
584.326	704.95
584.777	743.95
585.227	822.75
585.678	902.35
586.129	990.85
586.58	1069.25
587.031	1140.75
587.482	1289.45
587.933	1452.35
588.384	1281.85
588.834	959.05
589.285	805.25
589.736	785.25
590.186	781.05
590.637	765.45
591.088	744.45
591.538	743.65
591.989	736.55
592.439	723.25
592.89	720.85
593.34	703.55
593.791	704.15
594.241	707.65
594.692	710.05
595.142	699.55
595.593	700.75
596.043	707.65
596.493	723.15
596.943	715.45
597.394	714.95
597.844	709.05
598.294	730.05
598.744	752.55
599.195	775.85
599.645	815.05
600.095	860.05
600.545	923.15
600.995	972.65
601.445	1018.55
601.895	1082.25
602.345	1137.85
602.795	1102.95
603.245	1063.75
603.695	1000.15
604.145	950.45
604.594	902.55
605.044	858.75
605.494	796.35
605.944	750.95
606.393	733.75
606.843	728.35
607.293	727.05
607.743	722.55
608.192	748.05
608.642	755.15
609.091	763.45
609.541	771.25
609.99	769.55
610.44	769.05
610.889	719.05
611.339	700.95
611.788	688.55
612.238	706.05
612.687	712.35
613.136	717.75
613.586	736.75
614.035	736.55
614.484	746.55
614.933	743.05
615.383	743.85
615.832	728.95
616.281	726.05
616.73	678.45
617.179	658.45
617.628	648.75
618.077	637.25
618.526	629.15
618.975	619.85
619.424	613.45
619.873	612.45
620.322	621.35
620.771	591.75
621.22	603.35
621.669	594.75
622.118	595.65
622.567	577.65
623.015	559.45
623.464	573.05
623.913	558.45
624.361	565.15
624.81	549.75
625.259	550.15
625.707	549.45
626.156	553.25
626.604	567.15
627.053	565.85
627.501	562.75
627.95	573.25
628.398	582.05
628.847	562.15
629.295	568.15
629.744	570.05
630.192	571.25
630.64	572.15
631.089	565.05
631.537	585.05
631.985	595.75
632.433	606.25
632.881	609.05
633.33	658.45
633.778	641.95
634.226	580.05
634.674	575.25
635.122	583.45
635.57	602.35
636.018	624.75
636.466	578.75
636.914	559.85
637.362	573.15
637.81	576.35
638.258	576.75
638.705	577.85
639.153	616.35
639.601	614.05
640.049	642.45
640.497	677.35
640.944	693.85
641.392	636.25
641.84	616.75
642.287	588.65
642.735	574.85
643.182	571.45
643.63	570.45
644.078	579.15
644.525	594.85
644.973	599.15
645.42	606.75
645.867	624.05
646.315	639.55
646.762	668.75
647.21	686.05
647.657	707.25
648.104	755.15
648.551	776.25
648.999	839.05
649.446	924.45
649.893	1008.95
650.34	1162.25
650.787	1395.35
651.234	1720.75
651.682	2265.45
652.129	3096.55
652.576	4506.35
653.023	6600.05
653.47	9030.05
653.917	11180.05
654.363	12884.05
654.81	14161.95
655.257	13506.65
655.704	8801.55
656.151	5226.65
656.598	3397.95
657.044	2392.45
657.491	1843.55
657.938	1479.75
658.385	1234.45
658.831	1082.75
659.278	955.55
659.724	863.55
660.171	784.55
660.618	726.25
661.064	687.75
661.511	667.65
661.957	654.65
662.404	642.95
662.85	657.55
663.296	624.05
663.743	558.75
664.189	546.15
664.635	540.15
665.082	523.05
665.528	529.05
665.974	515.05
666.42	510.75
666.867	511.85
667.313	489.05
667.759	479.15
668.205	481.95
668.651	492.45
669.097	485.35
669.543	485.85
669.989	472.45
670.435	449.85
670.881	446.45
671.327	452.25
671.773	473.45
672.219	496.05
672.665	545.45
673.11	581.15
673.556	624.35
674.002	675.85
674.448	650.45
674.893	552.85
675.339	480.45
675.785	441.05
676.23	416.75
676.676	392.85
677.122	375.45
677.567	370.15
678.013	376.05
678.458	367.35
678.904	363.25
679.349	352.45
679.794	350.65
680.24	349.35
680.685	357.25
681.131	341.65
681.576	354.35
682.021	358.95
682.466	349.15
682.912	349.35
683.357	357.85
683.802	379.55
684.247	414.95
684.692	460.35
685.137	501.55
685.583	536.05
686.028	558.25
686.473	526.05
686.918	447.65
687.363	416.55
687.807	394.55
688.252	363.75
688.697	355.35
689.142	328.95
689.587	329.95
690.032	326.45
690.477	344.95
690.921	352.15
691.366	390.95
691.811	404.85
692.255	427.95
692.7	466.85
693.145	511.65
693.589	704.05
694.034	1142.85
694.478	1542.15
694.923	1729.95
695.367	2252.05
695.812	1191.55
696.256	498.45
696.701	374.55
697.145	347.95
697.59	329.35
698.034	318.65
698.478	328.45
698.922	325.85
699.367	326.55
699.811	332.45
700.255	355.75
700.699	393.75
701.143	426.45
701.588	478.95
702.032	520.55
702.476	515.95
702.92	496.45
703.364	491.15
703.808	641.75
704.252	1045.15
704.696	1465.05
705.14	1648.45
705.584	2118.45
706.027	1058.75
706.471	523.75
706.915	394.55
707.359	345.45
707.803	312.25
708.246	309.75
708.69	311.85
709.134	310.65
709.577	308.25
710.021	317.45
710.465	309.85
710.908	300.35
711.352	302.05
711.795	308.55
712.239	351.15
712.682	382.55
713.126	420.75
713.569	461.55
714.012	376.15
714.456	319.15
714.899	299.55
715.342	276.25
715.786	264.55
716.229	261.75
716.672	258.05
717.115	248.35
717.558	247.95
718.002	247.85
718.445	268.45
718.888	291.25
719.331	295.65
719.774	302.75
720.217	304.75
720.66	289.95
721.103	272.05
721.546	258.15
721.989	249.95
722.432	234.35
722.874	231.25
723.317	227.45
723.76	233.55
724.203	257.75
724.645	321.65
725.088	448.35
725.531	582.45
725.974	647.25
726.416	547.05
726.859	307.15
727.301	249.55
727.744	239.05
728.187	231.85
728.629	238.05
729.071	243.15
729.514	260.25
729.956	269.15
730.399	289.25
730.841	286.35
731.283	274.95
731.726	268.05
732.168	264.55
732.61	266.15
733.053	290.55
733.495	319.65
733.937	346.25
734.379	399.65
734.821	439.45
735.263	548.55
735.705	841.25
736.148	1611.85
736.59	2607.35
737.032	3049.55
737.474	2473.65
737.916	805.55
738.357	426.65
738.799	325.15
739.241	297.95
739.683	292.35
740.125	293.15
740.567	293.25
741.008	317.65
741.45	315.35
741.892	314.25
742.334	344.95
742.775	363.15
743.217	346.15
743.658	273.45
744.1	262.15
744.542	262.35
744.983	306.35
745.425	337.15
745.866	342.05
746.307	283.85
746.749	289.35
747.19	330.55
747.632	469.05
748.073	909.05
748.514	1883.75
748.956	2844.15
749.397	3561.35
749.838	2980.65
750.279	2929.85
750.72	1482.05
751.162	550.55
751.603	315.95
752.044	251.25
752.485	217.35
752.926	211.45
753.367	197.25
753.808	194.25
754.249	194.75
754.69	187.65
755.131	185.15
755.572	185.05
756.013	186.35
756.453	183.65
756.894	187.55
757.335	187.65
757.776	192.75
758.216	194.45
758.657	199.55
759.098	199.15
759.538	227.85
759.979	271.15
760.42	376.35
760.86	720.25
761.301	1873.55
761.741	4479.85
762.182	6346.65
762.622	4459.15
763.063	1307.75
763.503	537.95
763.943	346.65
764.384	345.15
764.824	391.45
765.264	423.15
765.705	298.65
766.145	213.55
766.585	186.75
767.025	179.95
767.465	186.25
767.906	245.85
768.346	316.75
768.786	334.85
769.226	259.75
769.666	325.05
770.106	644.35
770.546	1597.45
770.986	2627.55
771.426	2331.05
771.866	793.65
772.306	329.35
772.745	212.05
773.185	172.25
773.625	166.25
774.065	163.05
774.505	193.05
774.944	305.25
775.384	668.75
775.824	1180.65
776.263	1138.45
776.703	487.35
777.142	221.15
777.582	151.85
778.021	126.65
778.461	140.05
778.9	142.75
779.34	134.15
779.779	118.85
780.219	116.75
780.658	104.85
781.097	113.15
781.537	116.25
781.976	110.15
782.415	104.65
782.855	105.75
783.294	99.35
783.733	105.55
784.172	109.05
784.611	109.65
785.05	114.35
785.489	112.05
785.928	115.95
786.367	122.25
786.806	118.55
787.245	124.05
787.684	136.95
788.123	151.25
788.562	134.95
789.001	125.55
789.44	116.75
789.879	117.05
790.317	120.85
790.756	123.25
791.195	133.05
791.634	150.55
792.072	206.95
792.511	378.45
792.95	1036.75
793.388	2131.65
793.827	1908.75
794.265	680.75
794.704	284.75
795.142	184.25
795.581	152.15
796.019	140.85
796.458	129.55
796.896	117.45
797.334	127.45
797.773	152.05
798.211	220.35
798.649	444.95
799.087	1038.25
799.526	1599.45
799.964	2021.45
800.402	1993.05
800.84	757.55
801.278	303.45
801.716	187.45
802.154	158.55
802.592	143.55
803.03	137.55
803.468	135.75
803.906	141.65
804.344	157.95
804.782	137.65
805.22	130.65
805.658	128.55
806.096	145.25
806.533	154.15
806.971	175.25
807.409	216.65
807.847	318.75
808.284	690.65
808.722	1903.05
809.16	3267.05
809.597	3146.35
810.035	5458.35
810.472	5689.65
810.91	2066.35
811.347	791.65
811.785	399.95
812.222	251.55
812.66	196.45
813.097	160.85
813.535	142.55
813.972	131.85
814.409	120.15
814.846	114.25
815.284	110.45
815.721	100.05
816.158	107.65
816.595	122.45
817.032	181.95
817.47	197.15
817.907	162.45
818.344	152.95
818.781	116.25
819.218	101.85
819.655	128.65
820.092	191.95
820.529	211.15
820.966	177.85
821.403	131.05
821.839	116.05
822.276	97.65
822.713	122.35
823.15	131.65
823.587	118.95
824.023	145.15
824.46	301.55
824.897	910.05
825.333	1351.95
825.77	573.95
826.206	227.45
826.643	136.95
827.08	100.15
827.516	80.25
827.953	77.15
828.389	82.45
828.825	69.75
829.262	66.25
829.698	62.65
830.135	64.95
830.571	65.15
831.007	61.65
831.443	70.45
831.88	54.15
832.316	59.05
832.752	61.45
833.188	73.45
833.624	68.75
834.06	69.75
834.497	68.75
834.933	74.95
835.369	78.05
835.805	67.85
836.241	79.45
836.677	85.15
837.112	90.25
837.548	108.35
837.984	130.95
838.42	208.15
838.856	513.35
839.292	1532.65
839.727	2268.05
840.163	1063.75
840.599	947.95
841.034	2041.55
841.47	2092.15
841.906	776.15
842.341	334.85
842.777	232.05
843.212	319.55
843.648	297.65
844.083	147.95
844.519	94.35
844.954	70.55
845.39	65.85
845.825	62.05
846.261	58.35
846.696	55.65
847.131	49.85
847.566	53.75
848.002	53.35
848.437	58.75
848.872	64.95
849.307	62.35
849.742	89.25
850.177	184.15
850.613	565.25
851.048	870.55
851.483	379.15
851.918	156.45
852.353	86.95
852.788	62.15
853.223	62.85
853.657	59.15
854.092	51.45
854.527	44.15
854.962	37.45
855.397	45.05
855.832	46.25
856.266	40.75
856.701	40.15
857.136	44.35
857.57	42.85
858.005	52.35
858.44	55.35
858.874	43.15
859.309	50.05
859.743	36.25
860.178	46.85
860.612	38.95
861.047	52.75
861.481	66.15
861.915	70.15
862.35	52.85
862.784	29.55
863.218	37.15
863.653	31.95
864.087	45.15
864.521	61.05
864.955	72.25
865.39	157.25
865.824	171.25
866.258	115.05
866.692	162.95
867.126	174.35
867.56	105.55
867.994	53.55
868.428	34.45
868.862	47.55
869.296	54.15
869.73	58.25
870.164	54.55
870.598	51.95
871.031	36.25
871.465	28.95
871.899	31.05
872.333	28.25
872.766	28.65
873.2	25.75
873.634	30.75
874.067	22.95
874.501	27.45
874.935	32.55
875.368	27.95
875.802	28.05
876.235	29.05
876.669	21.15
877.102	20.55
877.535	26.95
877.969	19.05
878.402	21.25
878.836	23.25
879.269	26.75
879.702	21.45
880.135	19.55
880.569	24.75
881.002	28.55
881.435	28.55
881.868	15.45
882.301	24.85
882.734	16.15
883.167	26.05
883.601	22.55
884.034	21.45
884.467	19.05
884.899	21.25
885.332	15.15
885.765	16.35
886.198	18.15
886.631	28.05
887.064	18.05
887.497	23.05
887.929	24.05
888.362	14.75
888.795	5.75
889.228	17.35
889.66	17.65
890.093	20.85
890.526	16.95
890.958	15.15
891.391	14.05
891.823	17.95
892.256	18.05
892.688	13.15
893.121	22.25
893.553	13.05
893.985	22.35
894.418	21.15
894.85	19.05
895.282	18.15
895.715	14.25
896.147	16.15
896.579	16.35
897.011	12.05
897.444	13.05
897.876	14.75
898.308	19.45
898.74	16.25
899.172	19.35
899.604	25.45
900.036	19.55
900.468	17.35
900.9	14.55
901.332	17.55
901.764	13.05
902.196	15.35
902.628	17.55
903.06	16.05
903.491	22.05
903.923	17.85
904.355	21.15
904.787	26.45
905.218	27.15
905.65	19.95
906.082	6.35
906.513	16.05
906.945	16.25
907.376	19.35
907.808	22.05
908.239	23.75
908.671	23.05
909.102	20.05
909.534	26.45
909.965	44.55
910.397	95.25
910.828	324.15
911.259	474.85
911.691	210.65
912.122	107.35
912.553	57.75
912.984	34.55
913.415	24.65
913.847	27.55
914.278	17.85
914.709	16.75
915.14	19.25
915.571	17.45
916.002	12.95
916.433	20.95
916.864	21.35
917.295	9.15
917.726	24.25
918.157	18.45
918.587	26.25
919.018	15.75
919.449	20.85
919.88	26.75
920.311	34.15
920.741	45.55
921.172	169.45
921.603	152.35
922.033	70.45
922.464	45.55
922.895	23.15
923.325	27.55
923.756	15.65
924.186	16.85
924.617	25.85
925.047	42.95
925.478	54.55
925.908	46.15
926.338	23.85
926.769	17.05
927.199	19.65
927.629	7.75
928.06	16.75
928.49	13.15
928.92	9.45
929.35	5.85
929.78	12.55
930.21	7.65
930.641	14.65
931.071	11.35
931.501	7.55
931.931	12.45
932.361	12.25
932.791	-1.95
933.221	4.25
933.651	5.35
934.08	16.95
934.51	29.55
934.94	8.75
935.37	8.05
935.8	9.95
936.229	8.15
936.659	7.75
937.089	3.45
937.519	12.05
937.948	21.35
938.378	16.85
938.807	6.95
939.237	2.45
939.666	10.75
940.096	-3.45
940.525	-0.75
940.955	3.75
941.384	1.65
941.814	-4.75
942.243	-0.25
942.672	-0.35
943.102	-2.35
943.531	-0.05
943.96	5.65
944.39	4.05
944.819	1.65
945.248	5.65
945.677	4.35
946.106	3.45
946.535	3.25
946.964	-1.25
947.393	8.55
947.822	-0.65
948.251	1.55
948.68	6.05
949.109	10.55
949.538	9.75
949.967	-0.55
950.396	3.05
950.825	-3.85
951.254	0.25
951.682	-8.75
952.111	0.75
952.54	0.65
952.969	-3.15
953.397	-9.15
953.826	6.95
954.254	-7.85
954.683	-2.95
955.112	-0.25
955.54	0.65
955.969	0.15
956.397	1.95
956.826	-2.15
957.254	1.45
957.682	7.15
958.111	1.65
958.539	1.35
958.967	-1.05
959.396	-0.55
959.824	3.55
960.252	1.85
960.68	-4.05
961.109	-2.35
961.537	-8.55
961.965	-0.95
962.393	-4.85
962.821	1.85
963.249	-3.25
963.677	4.35
964.105	3.85
964.533	49.35
964.961	37.55
965.389	20.35
965.817	7.35
966.245	1.05
966.672	3.75
967.1	-5.55
967.528	-2.15
967.956	1.75
968.383	5.25
968.811	-2.05
969.239	-2.25
969.666	-7.25
970.094	-2.15
970.522	-2.65
970.949	-5.75
971.377	-1.05
971.804	-4.05
972.232	1.45
972.659	-6.65
973.087	1.45
973.514	-1.45
973.941	-8.55
974.369	-0.15
974.796	1.95
975.223	0.05
975.651	-2.35
976.078	3.45
976.505	1.65
976.932	5.35
977.359	10.85
977.786	11.65
978.214	0.85
978.641	-4.65
979.068	-0.65
979.495	-7.15
979.922	-0.55
980.349	3.45
980.776	4.15
981.202	0.55
981.629	1.85
982.056	2.25
982.483	-2.05
982.91	6.25
983.337	-4.05
983.763	4.95
984.19	-3.35
984.617	-5.45
985.043	-8.85
985.47	-3.45
985.897	-4.85
986.323	-7.55
986.75	-1.55
987.176	-2.25
987.603	-3.95
988.029	-0.25
988.456	-0.15
988.882	-1.55
989.308	-7.05
989.735	0.05
990.161	-3.35
990.587	-7.45
991.014	-2.95
991.44	6.45
991.866	0.25
992.292	-3.05
992.719	-1.65
993.145	1.55
993.571	-11.45
993.997	-0.05
994.423	-1.55
994.849	-4.65
995.275	-2.25
995.701	-7.35
996.127	-8.05
996.553	-1.35
996.979	-2.75
997.405	1.45
997.83	-1.75
998.256	-5.85
998.682	-8.95
999.108	-11.55
999.534	0.15
999.959	-3.15
1000.385	-4.05
1000.811	0.15
1001.236	-5.95
1001.662	-5.45
1002.087	-8.05
1002.513	-4.55
1002.938	-2.65
1003.364	-2.05
1003.789	-0.85
1004.215	2.95
1004.64	0.05
1005.066	1.85
1005.491	-0.15
1005.916	0.85
1006.342	-6.15
1006.767	-5.25
1007.192	4.75
1007.617	-6.95
1008.042	-5.05
1008.468	-8.65
1008.893	-4.75
1009.318	-0.05
1009.743	-2.95
1010.168	-1.65
1010.593	3.05
1011.018	-10.35
1011.443	3.65
1011.868	2.55
1012.293	-4.55
1012.718	-6.95
1013.143	2.95
1013.567	3.35
1013.992	1.15
1014.417	-4.85
1014.842	0.75
1015.267	-8.85
1015.691	-8.85
1016.116	4.25
1016.541	-3.05
1016.965	0.75
1017.39	0.75
1017.814	-3.85
1018.239	-2.95
1018.663	-0.85
1019.088	-17.05
1019.512	-3.65
1019.937	-0.15
1020.361	-2.05
1020.785	-15.05
1021.21	-7.15
1021.634	-3.65
1022.058	2.55
1022.483	3.05
1022.907	-4.55
1023.331	-1.95
1023.755	-4.75
1024.179	-5.15
1024.604	-6.95
1025.028	-6.15
1025.452	-0.95
1025.876	3.05
1026.3	4.35
1026.724	-10.05
1027.148	-9.35
1027.572	-9.55
1027.996	-7.35
1028.42	-3.65
1028.843	-6.65
1029.267	-7.05
1029.691	0.35
1030.115	-3.65
1030.539	-2.05
1030.962	-5.05
1031.386	-8.45
1031.81	-0.45
1032.233	-0.85
1032.657	-2.35
1033.08	0.65
1033.504	-3.25
1033.927	-9.65
1034.351	4.65
1034.774	-5.25
1035.198	-2.65
1035.621	-5.25
1036.045	-10.95
1036.468	1.35
1036.891	-8.85
1037.315	-7.65
1037.738	-13.05
1038.161	-1.95
1038.584	-8.75
1039.008	-9.05
1039.431	-3.65
1039.854	-5.45
1040.277	-7.75
1040.7	-12.95
1041.123	-3.05
1041.546	-6.45
1041.969	-3.75
1042.392	-5.25
1042.815	1.65
1043.238	1.65
1043.661	5.55
1044.084	-7.05
1044.507	-7.15
1044.93	-2.25
1045.352	-9.25
1045.775	-4.15
1046.198	-4.75
1046.621	0.55
1047.043	0.55
1047.466	10.45
1047.889	-6.35
1048.311	-11.45
1048.734	-2.75
1049.156	-3.35
1049.579	-2.75
1050.001	-8.55
1050.424	-2.25
1050.846	-9.75
1051.269	-0.65
1051.691	-6.25
1052.113	-3.35
1052.536	-0.55
1052.958	1.85
1053.38	-5.15
1053.802	-11.75
1054.225	3.15
1054.647	-9.05
1055.069	-4.55
1055.491	-0.85
1055.913	-0.25
1056.335	-0.55
1056.757	-1.75
1057.179	-5.85
1057.601	-7.15
1058.023	-7.05
1058.445	-8.45
1058.867	-5.15
1059.289	-4.55
1059.711	-11.25
1060.133	0.65
1060.555	-6.75
1060.976	-5.25
1061.398	-2.35
1061.82	-3.75
1062.241	-6.55
1062.663	-9.25
1063.085	-3.55
1063.506	-5.35
1063.928	-5.15
1064.35	-5.05
1064.771	-10.85
1065.193	-3.85
1065.614	-10.85
1066.035	-5.65
1066.457	-3.15
1066.878	1.75
1067.3	-3.35
1067.721	-5.45
1068.142	-3.65
1068.564	-2.75
1068.985	-5.05
1069.406	-4.85
1069.827	-6.75
1070.248	-5.85
1070.67	-7.45
1071.091	-9.85
1071.512	0.75
1071.933	-1.05
1072.354	-5.95
1072.775	-7.25
1073.196	-6.25
1073.617	-8.65
1074.038	-6.05
1074.459	-1.35
1074.88	-7.15
1075.3	4.15
1075.721	-4.55
1076.142	0.75
1076.563	-1.25
1076.983	-12.55
1077.404	-7.55
1077.825	-13.75
1078.246	0.35
1078.666	-9.35
1079.087	-7.25
1079.507	-5.65
1079.928	2.35
1080.348	-1.85
1080.769	-8.55
1081.189	1.35
1081.61	-3.25
1082.03	-3.95
1082.451	-7.95
1082.871	-4.95
1083.291	-8.95
1083.711	-9.55
1084.132	-5.85
1084.552	-4.95
1084.972	-3.65
1085.392	-13.05
1085.813	-12.65
1086.233	-4.15
1086.653	2.95
1087.073	-2.65
1087.493	-10.65
1087.913	-5.65
1088.333	-6.75
1088.753	-0.85
1089.173	1.05
1089.593	-4.45
1090.013	-4.05
1090.433	3.45
1090.852	1.35
1091.272	-5.85
1091.692	0.75
1092.112	-3.55
1092.531	-13.75
1092.951	-11.05
1093.371	-5.15
1093.79	5.45
1094.21	-10.05
1094.63	-9.95
1095.049	-8.75
1095.469	-3.45
1095.888	-1.75
1096.308	-1.55
1096.727	-0.65
1097.146	-4.75
1097.566	3.05
1097.985	-7.15
1098.405	-2.75
1098.824	-4.65
1099.243	-10.85
1099.662	-12.05
1100.082	-3.35
1100.501	-4.05
1100.92	-7.85
1101.339	-8.15
1101.758	-6.15
