Data from 20171114-ORNL-Ar_H_NY_Subt18_08-04-40-552.txt Node
Date: Tue Nov 14 08:04:40 EST 2017
User: Ender
Spectrometer: HR+D1039
Trigger mode: 0
Integration Time (sec): 2.730000E-2
Scans to average: 10
Electric dark correction enabled: true
Nonlinearity correction enabled: false
Boxcar width: 0
XAxis mode: Wavelengths
Number of Pixels in Spectrum: 2048
>>>>>Begin Spectral Data<<<<<
187.836	-3.15
188.309	-3.15
188.782	-3.15
189.255	5.85
189.728	1.15
190.201	8.15
190.674	1.95
191.147	-4.65
191.619	-5.75
192.092	2.55
192.565	3.15
193.038	-4.05
193.511	-6.75
193.984	2.75
194.456	-0.75
194.929	-2.05
195.402	-1.55
195.874	3.15
196.347	-0.95
196.82	-7.35
197.292	2.15
197.765	2.25
198.237	-7.35
198.71	-1.35
199.182	-5.65
199.655	6.85
200.127	1.25
200.6	-3.95
201.072	-4.75
201.544	-5.15
202.017	-0.95
202.489	2.35
202.961	-0.05
203.433	-5.85
203.906	-4.35
204.378	-1.55
204.85	-2.35
205.322	-4.75
205.794	-0.95
206.266	-2.05
206.739	-4.75
207.211	2.85
207.683	-2.55
208.155	-1.85
208.627	-6.45
209.099	-1.45
209.57	-7.65
210.042	-4.65
210.514	1.45
210.986	-0.75
211.458	-9.45
211.93	-3.35
212.402	-0.25
212.873	-7.95
213.345	-4.75
213.817	-9.45
214.288	-0.55
214.76	-5.55
215.232	-0.35
215.703	4.15
216.175	-3.65
216.646	-3.35
217.118	-7.15
217.589	-5.75
218.061	-0.85
218.532	-7.25
219.004	-1.25
219.475	-2.25
219.946	-1.35
220.418	-4.05
220.889	4.85
221.36	0.75
221.832	-4.75
222.303	-7.25
222.774	3.25
223.245	-2.45
223.717	-5.05
224.188	-6.75
224.659	-10.15
225.13	-1.55
225.601	0.55
226.072	5.85
226.543	4.55
227.014	4.95
227.485	-3.15
227.956	-0.45
228.427	-3.35
228.898	4.15
229.369	2.55
229.839	-5.75
230.31	-7.55
230.781	3.75
231.252	-1.55
231.722	3.85
232.193	-0.55
232.664	-3.25
233.135	2.65
233.605	0.75
234.076	-4.15
234.546	4.45
235.017	6.15
235.487	-1.35
235.958	2.65
236.428	2.05
236.899	3.65
237.369	5.55
237.84	1.35
238.31	2.85
238.78	5.85
239.251	1.95
239.721	3.25
240.191	-1.15
240.662	-1.05
241.132	-1.65
241.602	1.75
242.072	-0.55
242.542	6.05
243.013	-6.95
243.483	2.35
243.953	-2.45
244.423	-2.45
244.893	-0.75
245.363	9.35
245.833	4.25
246.303	1.95
246.773	9.25
247.243	5.95
247.712	8.75
248.182	4.25
248.652	4.85
249.122	0.95
249.592	10.55
250.061	19.55
250.531	39.25
251.001	23.55
251.471	27.25
251.94	25.25
252.41	9.85
252.879	7.55
253.349	15.15
253.818	16.45
254.288	12.65
254.757	5.85
255.227	6.65
255.696	6.05
256.166	2.65
256.635	10.25
257.105	10.75
257.574	9.95
258.043	11.55
258.513	19.45
258.982	21.65
259.451	9.05
259.92	13.15
260.389	7.95
260.859	16.75
261.328	18.45
261.797	21.65
262.266	11.75
262.735	12.95
263.204	6.25
263.673	4.75
264.142	7.15
264.611	-1.75
265.08	7.85
265.549	-7.25
266.018	5.75
266.487	1.65
266.955	-0.85
267.424	1.55
267.893	3.95
268.362	8.95
268.83	3.55
269.299	17.85
269.768	7.95
270.236	11.05
270.705	5.45
271.174	7.25
271.642	5.45
272.111	12.65
272.579	21.25
273.048	26.45
273.516	28.55
273.985	34.15
274.453	26.95
274.922	20.85
275.39	13.05
275.858	5.15
276.327	15.25
276.795	17.55
277.263	14.55
277.731	33.35
278.2	60.05
278.668	64.85
279.136	54.95
279.604	22.15
280.072	19.05
280.54	12.05
281.008	12.45
281.477	11.65
281.945	17.45
282.413	14.75
282.881	17.85
283.348	14.45
283.816	14.25
284.284	16.15
284.752	23.15
285.22	16.35
285.688	13.85
286.156	16.55
286.623	47.15
287.091	52.65
287.559	29.15
288.026	17.15
288.494	19.55
288.962	10.95
289.429	14.35
289.897	24.95
290.364	17.55
290.832	21.95
291.3	15.55
291.767	17.15
292.234	18.55
292.702	16.65
293.169	27.15
293.637	28.55
294.104	24.25
294.571	10.45
295.039	19.25
295.506	10.85
295.973	21.75
296.44	20.35
296.908	20.55
297.375	23.05
297.842	21.45
298.309	15.45
298.776	21.55
299.243	27.45
299.71	15.05
300.177	19.85
300.644	21.05
301.111	21.45
301.578	28.55
302.045	25.65
302.512	26.15
302.979	28.65
303.446	24.35
303.913	21.05
304.379	23.05
304.846	33.05
305.313	26.05
305.78	23.45
306.246	29.65
306.713	32.15
307.18	30.35
307.646	25.65
308.113	30.95
308.579	28.05
309.046	29.35
309.512	26.95
309.979	20.05
310.445	31.55
310.912	36.45
311.378	30.75
311.845	28.25
312.311	39.35
312.777	34.95
313.244	26.75
313.71	38.95
314.176	35.95
314.642	32.05
315.109	41.45
315.575	35.15
316.041	44.05
316.507	38.75
316.973	34.75
317.439	30.55
317.905	38.65
318.371	40.75
318.837	36.75
319.303	37.65
319.769	36.55
320.235	33.55
320.701	39.55
321.167	38.15
321.633	40.15
322.099	43.95
322.564	49.95
323.03	43.15
323.496	34.35
323.962	41.15
324.427	37.95
324.893	47.55
325.359	38.15
325.824	50.45
326.29	34.05
326.755	41.65
327.221	47.75
327.686	44.05
328.152	48.35
328.617	47.45
329.083	47.25
329.548	51.55
330.014	45.95
330.479	33.25
330.944	42.35
331.41	44.25
331.875	42.35
332.34	39.15
332.805	44.95
333.271	46.45
333.736	44.15
334.201	58.85
334.666	51.85
335.131	53.45
335.596	55.05
336.061	53.45
336.526	42.85
336.991	50.65
337.456	58.95
337.921	50.35
338.386	45.55
338.851	51.95
339.316	45.85
339.781	40.75
340.246	49.75
340.711	48.55
341.175	50.75
341.64	51.15
342.105	58.05
342.569	54.95
343.034	60.25
343.499	59.55
343.963	50.05
344.428	67.45
344.893	59.05
345.357	61.35
345.822	64.45
346.286	77.15
346.751	76.65
347.215	62.15
347.679	74.95
348.144	99.65
348.608	90.15
349.073	68.65
349.537	76.65
350.001	77.95
350.465	86.55
350.93	75.15
351.394	76.75
351.858	73.65
352.322	92.45
352.786	83.55
353.25	93.45
353.715	112.75
354.179	98.25
354.643	117.95
355.107	126.05
355.571	114.35
356.035	102.75
356.498	112.85
356.962	118.45
357.426	129.35
357.89	115.25
358.354	95.15
358.818	83.25
359.281	82.65
359.745	81.15
360.209	82.25
360.673	74.85
361.136	84.45
361.6	83.55
362.064	77.15
362.527	87.95
362.991	84.55
363.454	76.45
363.918	76.05
364.381	80.45
364.845	85.35
365.308	83.35
365.772	84.35
366.235	87.65
366.698	88.25
367.162	92.55
367.625	84.95
368.088	82.55
368.552	88.95
369.015	86.75
369.478	95.45
369.941	96.85
370.404	96.75
370.867	101.25
371.331	108.45
371.794	113.95
372.257	116.65
372.72	118.75
373.183	108.65
373.646	100.65
374.109	105.75
374.572	104.65
375.035	103.65
375.497	105.65
375.96	100.25
376.423	105.45
376.886	106.65
377.349	102.25
377.811	100.05
378.274	98.85
378.737	98.95
379.199	113.95
379.662	113.05
380.125	119.35
380.587	111.75
381.05	115.65
381.512	123.75
381.975	135.65
382.437	124.25
382.9	129.55
383.362	128.95
383.825	137.55
384.287	145.25
384.75	137.85
385.212	131.05
385.674	138.85
386.136	128.05
386.599	119.65
387.061	123.05
387.523	125.05
387.985	130.75
388.447	144.95
388.91	133.35
389.372	147.95
389.834	148.25
390.296	140.35
390.758	153.15
391.22	174.55
391.682	197.15
392.144	277.35
392.606	226.55
393.068	161.15
393.529	165.75
393.991	156.35
394.453	146.35
394.915	152.35
395.377	178.35
395.838	200.55
396.3	141.95
396.762	136.05
397.224	135.65
397.685	124.55
398.147	129.15
398.608	124.85
399.07	123.85
399.531	131.55
399.993	136.85
400.454	148.45
400.916	141.75
401.377	136.95
401.839	148.55
402.3	145.95
402.762	160.15
403.223	176.45
403.684	166.85
404.145	156.15
404.607	158.15
405.068	154.85
405.529	162.85
405.99	182.15
406.451	169.05
406.913	170.45
407.374	156.45
407.835	148.85
408.296	160.65
408.757	166.25
409.218	179.25
409.679	173.95
410.14	167.45
410.601	169.35
411.062	176.45
411.522	184.05
411.983	187.25
412.444	169.25
412.905	167.25
413.366	167.85
413.826	187.95
414.287	208.75
414.748	259.05
415.208	232.75
415.669	202.85
416.13	192.65
416.59	197.65
417.051	201.05
417.511	206.25
417.972	224.85
418.432	236.25
418.893	274.35
419.353	241.95
419.814	194.75
420.274	177.45
420.734	170.65
421.195	187.65
421.655	182.45
422.115	184.05
422.576	186.35
423.036	189.45
423.496	196.05
423.956	208.55
424.416	216.05
424.876	246.85
425.336	239.75
425.797	247.85
426.257	239.05
426.717	235.15
427.177	222.55
427.637	211.25
428.097	224.35
428.556	233.15
429.016	247.05
429.476	242.15
429.936	259.05
430.396	263.35
430.856	281.45
431.315	304.65
431.775	341.95
432.235	361.55
432.694	325.45
433.154	351.25
433.614	359.65
434.073	316.25
434.533	271.45
434.993	258.55
435.452	268.95
435.912	278.05
436.371	273.35
436.83	268.05
437.29	255.85
437.749	235.75
438.209	226.55
438.668	262.65
439.127	268.05
439.587	253.75
440.046	237.15
440.505	244.85
440.964	267.65
441.424	304.45
441.883	299.55
442.342	242.25
442.801	207.95
443.26	211.15
443.719	207.55
444.178	205.15
444.637	199.65
445.096	206.45
445.555	208.95
446.014	218.65
446.473	214.05
446.932	215.05
447.391	210.05
447.849	219.35
448.308	206.05
448.767	208.15
449.226	224.95
449.685	220.15
450.143	237.15
450.602	223.45
451.061	215.15
451.519	222.15
451.978	222.25
452.436	221.05
452.895	234.05
453.353	237.55
453.812	232.15
454.27	221.25
454.729	221.85
455.187	223.85
455.646	225.05
456.104	231.75
456.562	244.15
457.021	253.35
457.479	251.95
457.937	262.85
458.395	248.45
458.854	233.85
459.312	238.55
459.77	254.45
460.228	239.55
460.686	228.05
461.144	232.55
461.602	222.95
462.06	237.35
462.518	249.05
462.976	237.15
463.434	246.25
463.892	247.45
464.35	257.75
464.808	276.45
465.266	255.85
465.724	258.15
466.181	267.65
466.639	257.05
467.097	274.45
467.555	288.75
468.012	280.65
468.47	295.95
468.928	309.65
469.385	325.45
469.843	331.55
470.3	322.95
470.758	339.85
471.215	362.35
471.673	385.05
472.13	379.35
472.588	383.45
473.045	347.85
473.503	357.25
473.96	368.55
474.417	389.95
474.875	404.25
475.332	442.65
475.789	433.55
476.246	431.15
476.704	465.65
477.161	470.45
477.618	496.65
478.075	523.25
478.532	582.85
478.989	654.95
479.446	765.45
479.903	723.05
480.36	757.95
480.817	814.75
481.274	915.45
481.731	1013.25
482.188	1113.55
482.645	1242.45
483.102	1347.35
483.558	1473.25
484.015	1522.35
484.472	1490.05
484.929	1455.35
485.385	1401.35
485.842	1370.85
486.299	1301.35
486.755	1227.55
487.212	1032.95
487.668	886.15
488.125	805.65
488.582	751.55
489.038	720.65
489.494	687.95
489.951	662.85
490.407	638.45
490.864	611.85
491.32	612.45
491.776	602.65
492.233	613.05
492.689	582.35
493.145	564.95
493.602	562.95
494.058	579.35
494.514	582.25
494.97	593.35
495.426	606.05
495.882	595.55
496.338	582.05
496.794	597.15
497.251	589.05
497.707	599.55
498.163	601.85
498.618	609.55
499.074	615.85
499.53	633.95
499.986	640.15
500.442	615.75
500.898	593.95
501.354	589.05
501.809	598.55
502.265	606.05
502.721	620.45
503.177	629.55
503.632	624.55
504.088	636.55
504.543	669.95
504.999	658.85
505.455	619.75
505.91	595.15
506.366	590.45
506.821	593.75
507.277	591.25
507.732	595.65
508.187	581.45
508.643	597.25
509.098	605.75
509.553	619.65
510.009	621.35
510.464	637.35
510.919	643.35
511.375	657.55
511.83	657.95
512.285	680.45
512.74	723.25
513.195	734.35
513.65	733.15
514.105	737.05
514.56	732.95
515.015	743.35
515.47	773.25
515.925	750.25
516.38	755.85
516.835	746.75
517.29	733.35
517.745	738.85
518.2	731.45
518.655	708.35
519.109	697.45
519.564	696.55
520.019	689.15
520.474	680.05
520.928	682.65
521.383	689.55
521.838	669.15
522.292	675.45
522.747	669.35
523.201	671.45
523.656	649.35
524.11	648.45
524.565	642.25
525.019	647.55
525.474	650.85
525.928	652.65
526.382	660.55
526.837	657.05
527.291	656.15
527.745	649.35
528.2	655.15
528.654	646.95
529.108	643.15
529.562	654.55
530.016	650.75
530.47	644.55
530.925	647.75
531.379	649.85
531.833	663.95
532.287	660.65
532.741	654.75
533.195	662.05
533.649	668.75
534.103	680.25
534.556	672.45
535.01	669.35
535.464	667.05
535.918	677.75
536.372	666.95
536.826	668.85
537.279	660.45
537.733	665.25
538.187	663.85
538.64	668.55
539.094	678.85
539.548	683.25
540.001	673.25
540.455	662.05
540.908	679.35
541.362	680.65
541.815	691.95
542.269	693.95
542.722	698.85
543.175	719.55
543.629	719.85
544.082	733.65
544.536	733.55
544.989	738.55
545.442	742.45
545.895	725.85
546.349	734.95
546.802	736.45
547.255	741.35
547.708	743.25
548.161	764.55
548.614	762.85
549.067	777.05
549.52	765.35
549.973	760.35
550.426	749.35
550.879	738.65
551.332	740.25
551.785	749.75
552.238	752.85
552.691	756.45
553.144	769.35
553.596	789.05
554.049	797.65
554.502	830.95
554.955	847.65
555.407	848.85
555.86	829.55
556.313	816.95
556.765	818.25
557.218	824.65
557.67	814.55
558.123	804.75
558.576	806.75
559.028	814.25
559.48	816.75
559.933	814.55
560.385	770.25
560.838	741.45
561.29	726.85
561.742	711.15
562.195	704.55
562.647	703.55
563.099	711.65
563.551	713.55
564.004	727.75
564.456	709.75
564.908	696.65
565.36	698.25
565.812	677.05
566.264	665.55
566.716	662.25
567.168	659.35
567.62	668.85
568.072	643.25
568.524	632.65
568.976	628.05
569.428	613.05
569.88	619.75
570.332	623.05
570.784	633.75
571.235	631.35
571.687	631.45
572.139	634.15
572.59	643.05
573.042	651.75
573.494	651.55
573.945	649.35
574.397	621.65
574.849	629.25
575.3	632.85
575.752	622.65
576.203	622.05
576.655	621.45
577.106	610.75
577.557	594.45
578.009	609.85
578.46	607.25
578.912	604.15
579.363	604.05
579.814	600.95
580.265	600.25
580.717	604.05
581.168	603.55
581.619	613.15
582.07	622.25
582.521	614.15
582.972	610.35
583.423	623.75
583.875	618.15
584.326	640.55
584.777	669.25
585.227	743.05
585.678	824.25
586.129	912.85
586.58	989.85
587.031	1053.75
587.482	1214.35
587.933	1390.45
588.384	1208.25
588.834	884.65
589.285	730.95
589.736	714.95
590.186	704.75
590.637	686.75
591.088	671.85
591.538	671.35
591.989	651.85
592.439	655.55
592.89	650.65
593.34	639.55
593.791	643.45
594.241	636.15
594.692	649.35
595.142	635.85
595.593	626.15
596.043	637.45
596.493	641.65
596.943	641.45
597.394	648.55
597.844	639.25
598.294	655.85
598.744	676.15
599.195	693.85
599.645	738.65
600.095	764.25
600.545	823.25
600.995	853.75
601.445	915.25
601.895	969.05
602.345	1026.25
602.795	993.05
603.245	959.75
603.695	917.85
604.145	856.35
604.594	822.45
605.044	760.65
605.494	719.55
605.944	685.05
606.393	667.45
606.843	640.75
607.293	652.05
607.743	649.45
608.192	660.95
608.642	684.55
609.091	685.45
609.541	680.75
609.99	684.55
610.44	680.85
610.889	634.65
611.339	626.05
611.788	617.15
612.238	623.05
612.687	640.45
613.136	634.15
613.586	655.95
614.035	650.05
614.484	678.95
614.933	675.35
615.383	655.15
615.832	651.75
616.281	643.95
616.73	611.05
617.179	595.45
617.628	576.75
618.077	560.15
618.526	548.55
618.975	548.05
619.424	550.35
619.873	543.25
620.322	555.35
620.771	533.05
621.22	539.65
621.669	523.85
622.118	520.45
622.567	518.55
623.015	508.65
623.464	505.75
623.913	496.55
624.361	488.65
624.81	485.35
625.259	486.65
625.707	477.15
626.156	485.65
626.604	493.25
627.053	492.85
627.501	487.55
627.95	492.45
628.398	506.75
628.847	501.45
629.295	507.35
629.744	511.85
630.192	502.05
630.64	498.75
631.089	498.25
631.537	500.95
631.985	509.85
632.433	526.15
632.881	531.35
633.33	584.95
633.778	562.05
634.226	496.75
634.674	504.55
635.122	500.85
635.57	525.25
636.018	553.25
636.466	513.15
636.914	488.25
637.362	494.75
637.81	495.85
638.258	507.45
638.705	505.55
639.153	533.55
639.601	536.65
640.049	552.65
640.497	594.05
640.944	605.55
641.392	560.75
641.84	531.85
642.287	508.15
642.735	497.35
643.182	501.35
643.63	505.05
644.078	500.15
644.525	519.65
644.973	518.45
645.42	528.25
645.867	543.15
646.315	559.35
646.762	567.75
647.21	605.75
647.657	616.15
648.104	657.05
648.551	674.35
648.999	726.55
649.446	783.65
649.893	862.75
650.34	990.55
650.787	1192.35
651.234	1493.15
651.682	1942.55
652.129	2633.15
652.576	3790.25
653.023	5635.85
653.47	7743.05
653.917	9769.85
654.363	11443.65
654.81	12868.25
655.257	12202.75
655.704	7945.05
656.151	4665.55
656.598	3005.65
657.044	2128.55
657.491	1639.25
657.938	1306.95
658.385	1093.95
658.831	946.95
659.278	844.15
659.724	753.05
660.171	688.85
660.618	630.25
661.064	603.35
661.511	572.25
661.957	565.55
662.404	545.15
662.85	556.75
663.296	537.45
663.743	485.55
664.189	468.05
664.635	469.15
665.082	458.75
665.528	444.75
665.974	448.65
666.42	440.35
666.867	440.95
667.313	426.15
667.759	420.95
668.205	416.95
668.651	429.95
669.097	419.55
669.543	438.95
669.989	404.65
670.435	392.35
670.881	379.35
671.327	390.25
671.773	405.15
672.219	419.85
672.665	465.75
673.11	492.35
673.556	545.35
674.002	575.75
674.448	566.35
674.893	475.15
675.339	413.65
675.785	380.75
676.23	359.05
676.676	336.55
677.122	322.15
677.567	312.65
678.013	311.85
678.458	306.55
678.904	311.45
679.349	296.15
679.794	297.75
680.24	298.95
680.685	296.65
681.131	299.25
681.576	299.55
682.021	300.15
682.466	297.65
682.912	291.85
683.357	302.55
683.802	320.95
684.247	348.95
684.692	389.35
685.137	422.95
685.583	459.05
686.028	485.85
686.473	444.95
686.918	374.65
687.363	357.45
687.807	328.05
688.252	304.55
688.697	304.25
689.142	293.65
689.587	289.15
690.032	275.75
690.477	297.95
690.921	301.45
691.366	320.05
691.811	341.65
692.255	363.45
692.7	392.25
693.145	430.75
693.589	579.95
694.034	940.15
694.478	1304.85
694.923	1506.55
695.367	1994.15
695.812	1027.85
696.256	425.15
696.701	317.05
697.145	294.55
697.59	282.75
698.034	273.95
698.478	279.45
698.922	276.15
699.367	278.35
699.811	287.25
700.255	298.55
700.699	335.75
701.143	365.85
701.588	408.55
702.032	437.35
702.476	440.15
702.92	418.25
703.364	418.75
703.808	526.55
704.252	858.55
704.696	1225.75
705.14	1435.65
705.584	1855.35
706.027	911.35
706.471	448.85
706.915	340.95
707.359	301.15
707.803	271.55
708.246	265.25
708.69	262.95
709.134	267.75
709.577	262.15
710.021	261.95
710.465	258.25
710.908	252.75
711.352	252.45
711.795	260.85
712.239	293.75
712.682	323.25
713.126	359.55
713.569	402.95
714.012	314.35
714.456	275.55
714.899	251.05
715.342	228.15
715.786	222.45
716.229	223.25
716.672	211.55
717.115	210.15
717.558	214.25
718.002	215.45
718.445	221.55
718.888	240.15
719.331	251.05
719.774	259.35
720.217	257.85
720.66	236.05
721.103	226.05
721.546	222.35
721.989	212.95
722.432	191.05
722.874	208.85
723.317	194.35
723.76	203.85
724.203	213.05
724.645	265.05
725.088	365.75
725.531	483.75
725.974	556.75
726.416	478.05
726.859	256.65
727.301	205.45
727.744	203.55
728.187	195.55
728.629	204.05
729.071	198.75
729.514	215.25
729.956	232.15
730.399	236.15
730.841	247.75
731.283	233.85
731.726	225.55
732.168	218.65
732.61	228.95
733.053	238.05
733.495	261.65
733.937	287.15
734.379	335.05
734.821	369.15
735.263	451.05
735.705	683.65
736.148	1292.85
736.59	2155.25
737.032	2660.35
737.474	2154.35
737.916	689.25
738.357	356.85
738.799	274.55
739.241	246.05
739.683	242.05
740.125	245.95
740.567	248.15
741.008	266.15
741.45	267.25
741.892	269.25
742.334	286.75
742.775	304.85
743.217	294.95
743.658	225.35
744.1	215.55
744.542	222.55
744.983	263.95
745.425	295.65
745.866	294.15
746.307	246.25
746.749	244.45
747.19	272.45
747.632	374.95
748.073	716.65
748.514	1535.55
748.956	2416.15
749.397	3027.05
749.838	2513.05
750.279	2582.35
750.72	1294.15
751.162	465.95
751.603	272.45
752.044	215.15
752.485	181.45
752.926	179.05
753.367	167.65
753.808	160.45
754.249	157.15
754.69	157.65
755.131	153.25
755.572	151.05
756.013	149.45
756.453	158.65
756.894	159.25
757.335	163.55
757.776	168.05
758.216	160.15
758.657	160.65
759.098	167.85
759.538	184.35
759.979	221.15
760.42	301.85
760.86	571.25
761.301	1483.05
761.741	3667.45
762.182	5664.75
762.622	3977.65
763.063	1128.75
763.503	453.95
763.943	294.45
764.384	287.95
764.824	348.55
765.264	386.55
765.705	264.85
766.145	176.45
766.585	157.75
767.025	152.95
767.465	149.15
767.906	204.15
768.346	280.55
768.786	302.65
769.226	225.85
769.666	264.05
770.106	506.35
770.546	1269.35
770.986	2274.25
771.426	2062.05
771.866	675.55
772.306	267.85
772.745	180.95
773.185	143.45
773.625	142.85
774.065	138.55
774.505	166.25
774.944	257.05
775.384	550.45
775.824	1062.05
776.263	1062.05
776.703	439.95
777.142	189.35
777.582	135.35
778.021	118.55
778.461	119.15
778.9	116.65
779.34	113.05
779.779	100.55
780.219	87.75
780.658	89.15
781.097	93.85
781.537	96.35
781.976	95.35
782.415	82.65
782.855	84.35
783.294	81.35
783.733	85.35
784.172	85.55
784.611	89.95
785.05	92.75
785.489	92.35
785.928	102.85
786.367	104.95
786.806	99.75
787.245	104.15
787.684	114.15
788.123	126.55
788.562	113.35
789.001	102.05
789.44	99.95
789.879	101.25
790.317	104.15
790.756	106.05
791.195	108.95
791.634	124.65
792.072	170.05
792.511	292.85
792.95	816.95
793.388	1831.35
793.827	1700.65
794.265	579.95
794.704	232.25
795.142	157.15
795.581	128.25
796.019	118.45
796.458	111.65
796.896	101.65
797.334	110.05
797.773	132.85
798.211	177.85
798.649	350.25
799.087	854.85
799.526	1343.95
799.964	1690.55
800.402	1763.45
800.84	653.45
801.278	245.45
801.716	161.25
802.154	119.05
802.592	123.65
803.03	119.95
803.468	108.35
803.906	118.25
804.344	117.55
804.782	111.55
805.22	117.35
805.658	111.15
806.096	123.55
806.533	132.75
806.971	145.95
807.409	181.85
807.847	253.35
808.284	540.75
808.722	1558.35
809.16	2843.25
809.597	2616.15
810.035	4625.85
810.472	5142.15
810.91	1824.35
811.347	682.85
811.785	339.05
812.222	207.95
812.66	161.85
813.097	138.05
813.535	124.45
813.972	111.55
814.409	101.25
814.846	89.15
815.284	94.15
815.721	87.25
816.158	94.35
816.595	96.65
817.032	151.05
817.47	170.45
817.907	152.95
818.344	127.45
818.781	96.25
819.218	86.15
819.655	105.45
820.092	160.05
820.529	181.85
820.966	158.75
821.403	109.35
821.839	90.85
822.276	83.05
822.713	98.35
823.15	110.85
823.587	98.75
824.023	124.55
824.46	238.15
824.897	742.65
825.333	1185.05
825.77	500.55
826.206	197.75
826.643	111.85
827.08	83.95
827.516	68.15
827.953	63.95
828.389	63.45
828.825	61.65
829.262	58.15
829.698	51.25
830.135	52.45
830.571	50.55
831.007	52.95
831.443	55.55
831.88	52.45
832.316	54.65
832.752	50.65
833.188	50.15
833.624	50.45
834.06	58.55
834.497	62.75
834.933	63.15
835.369	70.25
835.805	54.25
836.241	60.75
836.677	69.85
837.112	74.25
837.548	87.45
837.984	108.35
838.42	169.15
838.856	404.05
839.292	1256.55
839.727	2002.05
840.163	927.25
840.599	763.95
841.034	1716.25
841.47	1859.95
841.906	674.75
842.341	284.85
842.777	198.55
843.212	271.75
843.648	278.55
844.083	125.55
844.519	84.65
844.954	66.75
845.39	50.95
845.825	45.65
846.261	49.35
846.696	42.85
847.131	45.75
847.566	54.65
848.002	42.55
848.437	45.35
848.872	52.75
849.307	47.45
849.742	72.45
850.177	139.35
850.613	465.15
851.048	762.65
851.483	332.45
851.918	130.15
852.353	73.15
852.788	48.85
853.223	47.75
853.657	50.35
854.092	43.05
854.527	36.15
854.962	33.35
855.397	37.75
855.832	40.35
856.266	31.95
856.701	32.75
857.136	30.85
857.57	34.25
858.005	39.15
858.44	50.95
858.874	37.75
859.309	48.95
859.743	31.05
860.178	42.25
860.612	30.35
861.047	37.05
861.481	58.75
861.915	64.25
862.35	44.55
862.784	21.75
863.218	33.35
863.653	26.85
864.087	40.35
864.521	50.75
864.955	57.85
865.39	126.55
865.824	149.85
866.258	93.15
866.692	140.35
867.126	152.35
867.56	97.35
867.994	50.35
868.428	33.15
868.862	44.15
869.296	50.75
869.73	44.25
870.164	40.05
870.598	44.35
871.031	30.45
871.465	27.25
871.899	26.15
872.333	16.75
872.766	16.95
873.2	18.95
873.634	21.95
874.067	24.65
874.501	15.55
874.935	34.25
875.368	21.15
875.802	23.15
876.235	22.55
876.669	19.75
877.102	23.25
877.535	15.75
877.969	14.45
878.402	25.85
878.836	17.65
879.269	17.85
879.702	24.05
880.135	16.35
880.569	20.65
881.002	20.85
881.435	15.65
881.868	15.95
882.301	18.95
882.734	15.05
883.167	19.05
883.601	16.85
884.034	16.55
884.467	11.65
884.899	15.55
885.332	10.35
885.765	13.45
886.198	15.95
886.631	14.75
887.064	15.45
887.497	20.65
887.929	17.45
888.362	14.85
888.795	10.05
889.228	20.45
889.66	15.65
890.093	10.35
890.526	14.75
890.958	13.65
891.391	11.75
891.823	19.85
892.256	14.05
892.688	11.85
893.121	11.05
893.553	12.85
893.985	20.25
894.418	15.15
894.85	7.85
895.282	15.35
895.715	21.65
896.147	18.75
896.579	17.95
897.011	15.35
897.444	13.25
897.876	8.15
898.308	8.55
898.74	9.05
899.172	9.15
899.604	14.35
900.036	22.55
900.468	12.05
900.9	10.25
901.332	18.05
901.764	10.95
902.196	11.75
902.628	16.95
903.06	17.55
903.491	26.55
903.923	18.95
904.355	15.85
904.787	16.75
905.218	21.45
905.65	14.35
906.082	7.05
906.513	9.55
906.945	9.85
907.376	5.45
907.808	23.25
908.239	20.35
908.671	19.65
909.102	16.95
909.534	17.05
909.965	37.85
910.397	78.25
910.828	258.35
911.259	420.05
911.691	189.65
912.122	95.05
912.553	40.75
912.984	31.25
913.415	25.75
913.847	21.35
914.278	12.05
914.709	12.35
915.14	16.35
915.571	18.35
916.002	8.45
916.433	14.95
916.864	13.15
917.295	9.35
917.726	13.55
918.157	16.75
918.587	20.65
919.018	15.25
919.449	24.75
919.88	22.95
920.311	26.45
920.741	42.45
921.172	143.05
921.603	131.95
922.033	61.05
922.464	32.95
922.895	24.45
923.325	17.65
923.756	11.15
924.186	14.65
924.617	20.55
925.047	39.15
925.478	47.95
925.908	37.95
926.338	21.35
926.769	17.05
927.199	14.85
927.629	8.35
928.06	14.95
928.49	15.45
928.92	14.95
929.35	12.75
929.78	9.25
930.21	9.05
930.641	2.25
931.071	3.75
931.501	6.15
931.931	7.25
932.361	9.05
932.791	3.75
933.221	1.05
933.651	2.65
934.08	13.45
934.51	27.65
934.94	8.65
935.37	8.25
935.8	6.65
936.229	3.65
936.659	11.55
937.089	2.05
937.519	14.95
937.948	20.85
938.378	19.75
938.807	1.35
939.237	1.85
939.666	3.05
940.096	-2.05
940.525	3.65
940.955	1.85
941.384	3.15
941.814	-4.25
942.243	-0.85
942.672	-3.45
943.102	-2.55
943.531	1.35
943.96	-1.55
944.39	3.35
944.819	-1.55
945.248	3.35
945.677	-5.55
946.106	0.15
946.535	6.75
946.964	0.25
947.393	3.65
947.822	-2.45
948.251	-0.35
948.68	2.45
949.109	8.45
949.538	3.75
949.967	2.85
950.396	2.55
950.825	-1.55
951.254	0.35
951.682	-7.25
952.111	-0.15
952.54	10.35
952.969	-3.25
953.397	-5.35
953.826	-0.25
954.254	-6.35
954.683	5.15
955.112	-2.45
955.54	2.65
955.969	-1.55
956.397	-0.45
956.826	-1.55
957.254	3.65
957.682	3.35
958.111	9.05
958.539	-5.95
958.967	-2.85
959.396	3.55
959.824	2.65
960.252	-2.25
960.68	-0.65
961.109	-5.95
961.537	-2.15
961.965	-2.45
962.393	-3.75
962.821	-0.25
963.249	4.55
963.677	1.95
964.105	2.35
964.533	38.75
964.961	40.95
965.389	10.05
965.817	0.35
966.245	-4.25
966.672	-6.35
967.1	-4.95
967.528	-2.05
967.956	-1.35
968.383	-1.15
968.811	-4.85
969.239	-0.65
969.666	-1.45
970.094	1.85
970.522	-1.95
970.949	-5.75
971.377	-5.25
971.804	-1.25
972.232	2.05
972.659	-2.85
973.087	-1.05
973.514	-1.15
973.941	-5.05
974.369	7.05
974.796	6.05
975.223	2.05
975.651	-4.85
976.078	-1.55
976.505	-2.05
976.932	1.15
977.359	9.35
977.786	10.55
978.214	0.85
978.641	-1.55
979.068	-9.15
979.495	-4.85
979.922	4.95
980.349	2.45
980.776	0.85
981.202	-1.15
981.629	5.15
982.056	5.15
982.483	-3.15
982.91	-6.65
983.337	-5.95
983.763	3.95
984.19	-3.05
984.617	1.65
985.043	1.55
985.47	1.25
985.897	-4.35
986.323	-6.05
986.75	6.75
987.176	-1.95
987.603	1.85
988.029	0.15
988.456	4.15
988.882	1.55
989.308	-0.45
989.735	-5.45
990.161	-0.15
990.587	-6.65
991.014	0.15
991.44	8.35
991.866	2.25
992.292	-13.35
992.719	-7.45
993.145	1.75
993.571	-6.05
993.997	-1.75
994.423	-2.85
994.849	-0.45
995.275	4.25
995.701	0.55
996.127	2.55
996.553	3.45
996.979	4.15
997.405	-4.15
997.83	-5.95
998.256	-3.55
998.682	-3.65
999.108	-10.15
999.534	-2.05
999.959	2.85
1000.385	-2.65
1000.811	1.15
1001.236	-6.35
1001.662	-8.15
1002.087	-7.35
1002.513	3.35
1002.938	0.25
1003.364	-1.95
1003.789	-2.05
1004.215	1.75
1004.64	1.45
1005.066	-0.65
1005.491	-0.35
1005.916	-2.95
1006.342	-10.95
1006.767	-7.65
1007.192	5.95
1007.617	-4.25
1008.042	-6.35
1008.468	-10.75
1008.893	-3.45
1009.318	-2.95
1009.743	-5.55
1010.168	11.05
1010.593	0.85
1011.018	-12.35
1011.443	-3.35
1011.868	5.85
1012.293	0.25
1012.718	-10.95
1013.143	-4.55
1013.567	1.65
1013.992	3.15
1014.417	-13.05
1014.842	7.45
1015.267	-3.85
1015.691	-1.75
1016.116	5.45
1016.541	3.75
1016.965	7.95
1017.39	3.05
1017.814	-0.65
1018.239	-6.45
1018.663	-8.25
1019.088	-8.45
1019.512	-3.55
1019.937	4.85
1020.361	-7.15
1020.785	-10.25
1021.21	-4.05
1021.634	-2.75
1022.058	4.05
1022.483	7.25
1022.907	-4.15
1023.331	-3.25
1023.755	-1.95
1024.179	-5.05
1024.604	-4.95
1025.028	-6.85
1025.452	-7.55
1025.876	-2.85
1026.3	2.35
1026.724	-8.35
1027.148	-7.35
1027.572	-8.55
1027.996	-8.55
1028.42	1.55
1028.843	-2.25
1029.267	-5.95
1029.691	-5.55
1030.115	-2.75
1030.539	-5.75
1030.962	-3.95
1031.386	-15.85
1031.81	2.25
1032.233	-4.25
1032.657	-6.75
1033.08	-8.05
1033.504	0.45
1033.927	5.75
1034.351	-1.65
1034.774	-1.25
1035.198	-4.35
1035.621	-9.45
1036.045	-2.35
1036.468	2.65
1036.891	-1.85
1037.315	-6.45
1037.738	-9.75
1038.161	-0.25
1038.584	-5.05
1039.008	-4.15
1039.431	0.85
1039.854	2.65
1040.277	-7.85
1040.7	-11.75
1041.123	-4.15
1041.546	-10.85
1041.969	-3.95
1042.392	-3.25
1042.815	1.15
1043.238	6.55
1043.661	1.05
1044.084	-3.55
1044.507	-1.95
1044.93	-3.25
1045.352	-2.55
1045.775	4.25
1046.198	1.35
1046.621	1.85
1047.043	-2.25
1047.466	8.25
1047.889	-1.65
1048.311	-6.15
1048.734	-6.75
1049.156	-1.25
1049.579	-2.05
1050.001	-4.05
1050.424	-2.45
1050.846	-10.15
1051.269	-3.55
1051.691	-3.85
1052.113	-8.05
1052.536	-0.25
1052.958	-3.35
1053.38	-2.55
1053.802	-9.05
1054.225	-1.15
1054.647	-10.25
1055.069	-8.95
1055.491	-2.25
1055.913	-6.75
1056.335	-2.65
1056.757	-7.25
1057.179	-6.95
1057.601	-6.25
1058.023	1.05
1058.445	-1.45
1058.867	1.55
1059.289	-2.05
1059.711	-7.05
1060.133	-6.25
1060.555	-3.35
1060.976	-8.75
1061.398	-0.75
1061.82	-6.05
1062.241	-7.15
1062.663	-7.25
1063.085	-9.15
1063.506	-6.35
1063.928	-2.05
1064.35	-1.45
1064.771	-11.15
1065.193	-0.75
1065.614	-7.45
1066.035	-4.75
1066.457	-2.85
1066.878	5.95
1067.3	-8.75
1067.721	-6.75
1068.142	-2.65
1068.564	-6.05
1068.985	-7.55
1069.406	-8.55
1069.827	-7.05
1070.248	-5.05
1070.67	-8.25
1071.091	-1.75
1071.512	-3.05
1071.933	1.05
1072.354	-7.05
1072.775	-2.55
1073.196	-8.75
1073.617	-2.25
1074.038	-10.05
1074.459	-6.25
1074.88	-7.55
1075.3	1.45
1075.721	-9.45
1076.142	1.85
1076.563	0.65
1076.983	-8.25
1077.404	-3.65
1077.825	-15.15
1078.246	-2.05
1078.666	-12.95
1079.087	-6.45
1079.507	-8.75
1079.928	0.95
1080.348	-6.65
1080.769	-4.55
1081.189	4.45
1081.61	-1.75
1082.03	-3.05
1082.451	-7.55
1082.871	1.75
1083.291	-7.05
1083.711	-6.55
1084.132	-2.35
1084.552	-6.45
1084.972	2.15
1085.392	-5.75
1085.813	-13.15
1086.233	-6.85
1086.653	-5.45
1087.073	-2.45
1087.493	-7.85
1087.913	-4.65
1088.333	-7.55
1088.753	-5.95
1089.173	-0.85
1089.593	-4.25
1090.013	-3.25
1090.433	-1.75
1090.852	-0.75
1091.272	-5.75
1091.692	-1.95
1092.112	-4.45
1092.531	-2.75
1092.951	-16.35
1093.371	-1.25
1093.79	-0.15
1094.21	-1.45
1094.63	-6.95
1095.049	-6.85
1095.469	-6.25
1095.888	-1.85
1096.308	-2.35
1096.727	3.35
1097.146	0.05
1097.566	-5.95
1097.985	-5.85
1098.405	-2.85
1098.824	-7.85
1099.243	-4.65
1099.662	-7.15
1100.082	-1.15
1100.501	-4.95
1100.92	-1.25
1101.339	0.15
1101.758	-3.35
