Data from 20171114-ORNL-Ar_H_NY_Subt18_08-05-14-128.txt Node
Date: Tue Nov 14 08:05:14 EST 2017
User: Ender
Spectrometer: HR+D1039
Trigger mode: 0
Integration Time (sec): 2.730000E-2
Scans to average: 10
Electric dark correction enabled: true
Nonlinearity correction enabled: false
Boxcar width: 0
XAxis mode: Wavelengths
Number of Pixels in Spectrum: 2048
>>>>>Begin Spectral Data<<<<<
187.836	-4.55
188.309	-4.55
188.782	-4.55
189.255	0.85
189.728	-2.85
190.201	2.85
190.674	9.25
191.147	8.15
191.619	-7.05
192.092	-1.05
192.565	1.75
193.038	-4.45
193.511	1.95
193.984	0.95
194.456	-2.25
194.929	-0.85
195.402	-0.95
195.874	-1.75
196.347	-0.65
196.82	-6.85
197.292	7.05
197.765	-1.15
198.237	-9.35
198.71	-0.75
199.182	-1.55
199.655	3.55
200.127	-1.55
200.6	-3.15
201.072	1.55
201.544	-6.35
202.017	-0.15
202.489	3.85
202.961	0.15
203.433	0.65
203.906	-9.65
204.378	-5.15
204.85	-4.45
205.322	-12.75
205.794	-3.45
206.266	-4.25
206.739	-4.55
207.211	1.25
207.683	-10.35
208.155	-4.75
208.627	-10.05
209.099	-1.75
209.57	-8.25
210.042	-6.45
210.514	-6.15
210.986	1.25
211.458	-5.55
211.93	-2.65
212.402	-0.35
212.873	-7.35
213.345	-10.25
213.817	-9.95
214.288	-1.85
214.76	-11.05
215.232	-1.35
215.703	-2.45
216.175	0.95
216.646	0.65
217.118	-6.75
217.589	-6.05
218.061	-0.75
218.532	0.35
219.004	1.95
219.475	-2.35
219.946	-2.45
220.418	-7.35
220.889	3.05
221.36	-1.75
221.832	-4.75
222.303	-15.75
222.774	7.35
223.245	-6.55
223.717	-7.45
224.188	-2.85
224.659	-8.65
225.13	-5.75
225.601	-2.25
226.072	3.85
226.543	-2.35
227.014	-1.65
227.485	-0.55
227.956	-4.45
228.427	-2.35
228.898	2.35
229.369	6.35
229.839	-2.55
230.31	-4.55
230.781	0.75
231.252	-4.35
231.722	-2.75
232.193	-2.15
232.664	-1.85
233.135	-1.55
233.605	0.15
234.076	-3.05
234.546	-0.55
235.017	6.65
235.487	3.55
235.958	2.15
236.428	-3.95
236.899	2.45
237.369	2.85
237.84	-4.95
238.31	4.45
238.78	1.05
239.251	1.35
239.721	2.15
240.191	-1.55
240.662	3.95
241.132	-1.75
241.602	2.85
242.072	6.55
242.542	8.45
243.013	1.95
243.483	3.45
243.953	5.95
244.423	-0.35
244.893	-0.45
245.363	5.15
245.833	4.15
246.303	1.45
246.773	7.25
247.243	0.05
247.712	-2.55
248.182	6.15
248.652	8.25
249.122	2.85
249.592	14.85
250.061	24.75
250.531	31.85
251.001	19.25
251.471	21.85
251.94	23.65
252.41	12.65
252.879	0.55
253.349	15.75
253.818	14.35
254.288	-1.55
254.757	2.55
255.227	1.65
255.696	0.95
256.166	4.95
256.635	10.25
257.105	12.85
257.574	8.55
258.043	14.75
258.513	11.65
258.982	16.45
259.451	4.25
259.92	11.95
260.389	8.35
260.859	16.55
261.328	12.85
261.797	15.15
262.266	9.75
262.735	12.85
263.204	9.25
263.673	6.05
264.142	5.35
264.611	-0.15
265.08	6.45
265.549	11.45
266.018	13.35
266.487	-2.95
266.955	-2.35
267.424	2.75
267.893	7.75
268.362	5.65
268.83	4.15
269.299	11.85
269.768	9.25
270.236	10.05
270.705	6.95
271.174	8.45
271.642	8.75
272.111	6.95
272.579	16.95
273.048	25.95
273.516	29.35
273.985	36.05
274.453	26.85
274.922	20.75
275.39	13.25
275.858	7.35
276.327	9.75
276.795	20.25
277.263	13.25
277.731	32.15
278.2	54.35
278.668	62.05
279.136	44.95
279.604	16.55
280.072	16.35
280.54	8.95
281.008	14.95
281.477	19.15
281.945	11.85
282.413	12.75
282.881	21.35
283.348	8.45
283.816	14.35
284.284	16.35
284.752	25.25
285.22	17.05
285.688	14.25
286.156	22.25
286.623	50.15
287.091	55.85
287.559	29.35
288.026	15.75
288.494	8.85
288.962	12.15
289.429	13.15
289.897	17.75
290.364	16.35
290.832	23.15
291.3	22.45
291.767	12.65
292.234	21.95
292.702	16.75
293.169	21.25
293.637	26.15
294.104	26.95
294.571	14.15
295.039	17.85
295.506	19.05
295.973	22.35
296.44	22.15
296.908	19.25
297.375	22.75
297.842	25.95
298.309	18.85
298.776	12.95
299.243	18.65
299.71	18.95
300.177	18.45
300.644	24.15
301.111	22.15
301.578	30.85
302.045	23.95
302.512	27.65
302.979	25.25
303.446	21.65
303.913	20.35
304.379	22.25
304.846	30.15
305.313	28.15
305.78	26.25
306.246	30.75
306.713	30.85
307.18	27.05
307.646	26.75
308.113	29.55
308.579	25.85
309.046	31.45
309.512	30.05
309.979	21.45
310.445	29.55
310.912	29.25
311.378	31.55
311.845	37.05
312.311	34.25
312.777	38.05
313.244	31.75
313.71	41.85
314.176	30.05
314.642	35.15
315.109	35.45
315.575	39.55
316.041	43.85
316.507	39.35
316.973	41.05
317.439	39.75
317.905	39.25
318.371	39.65
318.837	34.85
319.303	39.05
319.769	37.75
320.235	34.85
320.701	33.45
321.167	38.85
321.633	41.15
322.099	45.55
322.564	44.85
323.03	42.25
323.496	42.65
323.962	48.95
324.427	34.85
324.893	40.25
325.359	36.65
325.824	40.35
326.29	39.95
326.755	40.65
327.221	42.55
327.686	41.85
328.152	49.15
328.617	38.55
329.083	45.35
329.548	55.35
330.014	52.05
330.479	47.55
330.944	47.55
331.41	48.75
331.875	48.75
332.34	48.75
332.805	47.45
333.271	54.15
333.736	49.05
334.201	54.85
334.666	47.55
335.131	60.95
335.596	59.75
336.061	51.35
336.526	42.15
336.991	50.85
337.456	63.85
337.921	55.55
338.386	42.15
338.851	46.65
339.316	52.55
339.781	45.75
340.246	54.95
340.711	52.45
341.175	52.15
341.64	44.45
342.105	52.45
342.569	51.65
343.034	57.05
343.499	57.85
343.963	59.85
344.428	71.85
344.893	59.85
345.357	65.15
345.822	66.35
346.286	80.85
346.751	76.45
347.215	68.55
347.679	76.45
348.144	99.65
348.608	91.55
349.073	68.85
349.537	79.85
350.001	84.95
350.465	89.75
350.93	84.75
351.394	85.35
351.858	72.15
352.322	89.55
352.786	88.95
353.25	100.35
353.715	111.85
354.179	102.05
354.643	121.75
355.107	128.45
355.571	112.85
356.035	101.25
356.498	122.95
356.962	129.45
357.426	130.75
357.89	122.35
358.354	90.35
358.818	86.15
359.281	75.55
359.745	81.25
360.209	81.45
360.673	75.55
361.136	81.15
361.6	91.95
362.064	80.85
362.527	86.75
362.991	88.55
363.454	82.95
363.918	81.55
364.381	82.45
364.845	85.65
365.308	93.05
365.772	88.25
366.235	86.95
366.698	90.45
367.162	91.75
367.625	92.35
368.088	84.45
368.552	87.65
369.015	90.45
369.478	99.05
369.941	102.15
370.404	95.45
370.867	102.45
371.331	108.95
371.794	111.35
372.257	107.25
372.72	119.55
373.183	109.35
373.646	101.65
374.109	103.65
374.572	109.55
375.035	111.45
375.497	112.05
375.96	109.45
376.423	102.95
376.886	116.75
377.349	104.85
377.811	103.75
378.274	109.55
378.737	112.55
379.199	107.05
379.662	116.05
380.125	114.65
380.587	119.05
381.05	120.55
381.512	124.35
381.975	137.25
382.437	123.95
382.9	128.65
383.362	133.55
383.825	142.25
384.287	143.75
384.75	145.15
385.212	141.75
385.674	141.45
386.136	139.05
386.599	124.35
387.061	136.25
387.523	123.45
387.985	135.55
388.447	143.65
388.91	149.65
389.372	157.75
389.834	151.05
390.296	143.25
390.758	152.35
391.22	165.85
391.682	213.65
392.144	281.15
392.606	221.45
393.068	164.05
393.529	169.85
393.991	154.95
394.453	146.45
394.915	160.55
395.377	191.65
395.838	203.65
396.3	159.25
396.762	144.25
397.224	128.85
397.685	133.15
398.147	130.35
398.608	133.35
399.07	129.35
399.531	130.15
399.993	142.85
400.454	157.45
400.916	145.55
401.377	149.65
401.839	153.55
402.3	153.05
402.762	160.75
403.223	176.15
403.684	170.25
404.145	162.35
404.607	163.05
405.068	168.15
405.529	171.25
405.99	194.15
406.451	179.85
406.913	171.15
407.374	157.35
407.835	163.75
408.296	167.45
408.757	170.75
409.218	190.45
409.679	176.65
410.14	176.95
410.601	181.35
411.062	179.25
411.522	185.45
411.983	190.45
412.444	174.85
412.905	183.35
413.366	179.75
413.826	195.85
414.287	216.65
414.748	261.05
415.208	247.25
415.669	220.05
416.13	209.25
416.59	195.15
417.051	215.45
417.511	218.75
417.972	242.25
418.432	246.55
418.893	280.05
419.353	244.05
419.814	191.75
420.274	178.35
420.734	178.05
421.195	198.95
421.655	193.85
422.115	188.85
422.576	191.15
423.036	197.25
423.496	203.15
423.956	212.35
424.416	233.25
424.876	264.75
425.336	254.85
425.797	259.65
426.257	254.25
426.717	239.05
427.177	234.35
427.637	224.85
428.097	233.25
428.556	252.35
429.016	268.05
429.476	270.55
429.936	271.15
430.396	275.55
430.856	291.35
431.315	317.55
431.775	342.35
432.235	380.05
432.694	349.95
433.154	359.45
433.614	380.05
434.073	332.25
434.533	281.95
434.993	270.25
435.452	287.95
435.912	296.65
436.371	291.05
436.83	281.85
437.29	270.35
437.749	251.15
438.209	247.85
438.668	273.05
439.127	280.25
439.587	264.35
440.046	249.45
440.505	262.95
440.964	275.65
441.424	317.85
441.883	313.65
442.342	254.15
442.801	222.85
443.26	217.95
443.719	219.25
444.178	216.85
444.637	208.25
445.096	216.95
445.555	221.25
446.014	216.25
446.473	223.55
446.932	231.15
447.391	219.05
447.849	226.55
448.308	217.75
448.767	219.35
449.226	237.65
449.685	234.15
450.143	257.05
450.602	231.65
451.061	231.55
451.519	229.85
451.978	230.05
452.436	235.25
452.895	241.95
453.353	255.95
453.812	241.25
454.27	247.85
454.729	241.45
455.187	236.75
455.646	241.55
456.104	251.75
456.562	253.05
457.021	264.35
457.479	255.95
457.937	274.75
458.395	258.95
458.854	241.55
459.312	251.85
459.77	272.65
460.228	251.15
460.686	245.95
461.144	248.05
461.602	244.25
462.06	237.95
462.518	240.55
462.976	252.15
463.434	259.25
463.892	265.55
464.35	275.85
464.808	290.55
465.266	259.45
465.724	269.05
466.181	275.35
466.639	268.55
467.097	291.05
467.555	295.95
468.012	305.75
468.47	309.15
468.928	326.75
469.385	339.05
469.843	350.05
470.3	351.35
470.758	362.55
471.215	386.55
471.673	407.35
472.13	397.85
472.588	411.95
473.045	373.25
473.503	374.15
473.96	393.05
474.417	400.65
474.875	436.05
475.332	471.05
475.789	461.35
476.246	454.05
476.704	479.75
477.161	496.95
477.618	516.85
478.075	557.65
478.532	612.25
478.989	688.35
479.446	809.15
479.903	776.05
480.36	806.35
480.817	865.15
481.274	971.15
481.731	1073.45
482.188	1167.45
482.645	1293.25
483.102	1402.05
483.558	1534.65
484.015	1578.85
484.472	1557.95
484.929	1506.35
485.385	1462.35
485.842	1431.25
486.299	1371.85
486.755	1291.85
487.212	1091.85
487.668	928.85
488.125	841.65
488.582	779.85
489.038	746.35
489.494	702.65
489.951	686.65
490.407	664.85
490.864	638.45
491.32	639.75
491.776	632.45
492.233	641.35
492.689	611.85
493.145	602.15
493.602	594.55
494.058	605.35
494.514	620.65
494.97	646.05
495.426	645.25
495.882	627.75
496.338	614.75
496.794	625.95
497.251	622.35
497.707	634.45
498.163	630.65
498.618	636.75
499.074	657.75
499.53	668.65
499.986	674.45
500.442	655.45
500.898	634.15
501.354	629.65
501.809	629.15
502.265	650.45
502.721	661.25
503.177	659.75
503.632	656.65
504.088	672.95
504.543	703.25
504.999	703.35
505.455	660.05
505.91	629.25
506.366	634.25
506.821	624.85
507.277	631.75
507.732	629.05
508.187	619.25
508.643	619.45
509.098	632.15
509.553	655.35
510.009	664.45
510.464	665.45
510.919	691.45
511.375	694.75
511.83	705.15
512.285	712.05
512.74	752.85
513.195	778.15
513.65	768.55
514.105	758.15
514.56	778.85
515.015	795.35
515.47	807.35
515.925	778.15
516.38	793.45
516.835	787.75
517.29	780.55
517.745	776.15
518.2	757.15
518.655	751.35
519.109	726.15
519.564	730.85
520.019	734.75
520.474	724.25
520.928	724.05
521.383	720.65
521.838	708.75
522.292	698.45
522.747	703.15
523.201	702.75
523.656	686.05
524.11	691.75
524.565	691.95
525.019	685.95
525.474	697.05
525.928	699.85
526.382	682.75
526.837	690.45
527.291	700.75
527.745	687.85
528.2	697.85
528.654	691.55
529.108	690.95
529.562	686.85
530.016	673.25
530.47	684.25
530.925	691.15
531.379	684.35
531.833	704.25
532.287	686.65
532.741	686.05
533.195	697.55
533.649	704.95
534.103	712.75
534.556	717.45
535.01	708.45
535.464	700.45
535.918	708.55
536.372	708.05
536.826	716.75
537.279	701.95
537.733	706.45
538.187	697.85
538.64	698.35
539.094	718.85
539.548	718.25
540.001	720.55
540.455	709.55
540.908	735.15
541.362	722.25
541.815	742.95
542.269	754.95
542.722	761.25
543.175	763.85
543.629	761.25
544.082	777.75
544.536	777.25
544.989	774.45
545.442	776.05
545.895	775.25
546.349	785.55
546.802	781.55
547.255	782.75
547.708	784.85
548.161	802.75
548.614	810.05
549.067	809.25
549.52	807.55
549.973	795.95
550.426	814.65
550.879	785.95
551.332	792.45
551.785	794.55
552.238	807.75
552.691	801.95
553.144	820.65
553.596	826.45
554.049	847.85
554.502	885.35
554.955	903.55
555.407	905.25
555.86	889.55
556.313	888.85
556.765	861.25
557.218	866.05
557.67	872.25
558.123	867.55
558.576	859.55
559.028	872.35
559.48	864.05
559.933	867.35
560.385	817.75
560.838	794.45
561.29	772.75
561.742	766.15
562.195	753.75
562.647	750.35
563.099	759.35
563.551	755.85
564.004	761.15
564.456	758.75
564.908	745.15
565.36	740.15
565.812	720.05
566.264	712.75
566.716	712.35
567.168	706.95
567.62	705.35
568.072	687.25
568.524	682.45
568.976	676.05
569.428	662.35
569.88	664.05
570.332	668.85
570.784	662.75
571.235	662.05
571.687	673.95
572.139	678.55
572.59	690.25
573.042	698.85
573.494	704.75
573.945	693.05
574.397	678.15
574.849	672.35
575.3	683.55
575.752	663.55
576.203	671.75
576.655	665.95
577.106	647.55
577.557	645.35
578.009	656.15
578.46	646.15
578.912	647.95
579.363	652.55
579.814	649.85
580.265	647.85
580.717	648.45
581.168	658.85
581.619	660.35
582.07	669.45
582.521	651.05
582.972	654.55
583.423	655.95
583.875	672.65
584.326	688.85
584.777	724.35
585.227	793.85
585.678	879.85
586.129	959.05
586.58	1033.65
587.031	1122.45
587.482	1263.55
587.933	1435.45
588.384	1245.25
588.834	935.35
589.285	778.65
589.736	754.65
590.186	749.55
590.637	738.45
591.088	721.85
591.538	721.05
591.989	703.35
592.439	697.25
592.89	689.25
593.34	696.45
593.791	694.05
594.241	675.65
594.692	680.95
595.142	674.25
595.593	678.15
596.043	684.75
596.493	680.45
596.943	685.95
597.394	688.95
597.844	691.85
598.294	710.35
598.744	729.65
599.195	744.15
599.645	787.45
600.095	818.55
600.545	878.05
600.995	931.45
601.445	986.05
601.895	1046.45
602.345	1097.75
602.795	1076.95
603.245	1034.95
603.695	980.85
604.145	926.85
604.594	877.75
605.044	825.25
605.494	765.75
605.944	727.75
606.393	713.65
606.843	703.15
607.293	706.85
607.743	712.25
608.192	725.45
608.642	727.55
609.091	733.35
609.541	745.95
609.99	741.55
610.44	739.35
610.889	688.35
611.339	669.25
611.788	661.95
612.238	665.25
612.687	688.35
613.136	693.65
613.586	706.55
614.035	704.05
614.484	722.75
614.933	712.35
615.383	717.95
615.832	710.85
616.281	688.55
616.73	655.05
617.179	638.15
617.628	624.35
618.077	610.55
618.526	588.75
618.975	595.35
619.424	587.75
619.873	585.55
620.322	589.15
620.771	583.75
621.22	572.45
621.669	577.05
622.118	560.35
622.567	555.45
623.015	546.65
623.464	543.25
623.913	534.65
624.361	526.65
624.81	519.85
625.259	521.25
625.707	524.95
626.156	533.45
626.604	539.85
627.053	532.55
627.501	531.25
627.95	540.85
628.398	547.85
628.847	533.45
629.295	540.75
629.744	546.85
630.192	548.55
630.64	547.25
631.089	539.55
631.537	552.65
631.985	559.85
632.433	562.35
632.881	569.75
633.33	618.85
633.778	599.55
634.226	532.25
634.674	545.45
635.122	551.85
635.57	566.35
636.018	589.45
636.466	549.35
636.914	533.75
637.362	541.55
637.81	546.65
638.258	544.35
638.705	549.85
639.153	570.45
639.601	586.55
640.049	608.85
640.497	638.55
640.944	652.55
641.392	598.75
641.84	575.35
642.287	550.85
642.735	543.85
643.182	534.85
643.63	543.05
644.078	537.15
644.525	560.35
644.973	567.15
645.42	564.65
645.867	586.65
646.315	604.25
646.762	628.15
647.21	655.25
647.657	671.25
648.104	713.55
648.551	726.35
648.999	786.05
649.446	867.05
649.893	942.85
650.34	1091.15
650.787	1298.05
651.234	1617.85
651.682	2098.75
652.129	2876.25
652.576	4121.35
653.023	6079.25
653.47	8373.65
653.917	10578.15
654.363	12260.25
654.81	13676.05
655.257	13009.05
655.704	8502.75
656.151	5016.65
656.598	3260.55
657.044	2304.35
657.491	1759.75
657.938	1405.85
658.385	1176.85
658.831	1019.25
659.278	918.85
659.724	797.05
660.171	746.15
660.618	687.95
661.064	651.15
661.511	630.55
661.957	615.05
662.404	608.65
662.85	615.15
663.296	588.35
663.743	530.55
664.189	500.95
664.635	504.05
665.082	497.55
665.528	497.15
665.974	488.25
666.42	477.45
666.867	472.75
667.313	463.95
667.759	451.85
668.205	441.95
668.651	442.45
669.097	449.15
669.543	470.15
669.989	439.45
670.435	423.25
670.881	416.35
671.327	424.15
671.773	439.15
672.219	449.25
672.665	506.45
673.11	536.85
673.556	590.05
674.002	631.05
674.448	617.25
674.893	518.95
675.339	440.35
675.785	408.55
676.23	399.35
676.676	374.75
677.122	356.35
677.567	341.25
678.013	347.65
678.458	329.35
678.904	339.15
679.349	325.15
679.794	332.85
680.24	327.65
680.685	325.95
681.131	320.95
681.576	323.75
682.021	331.15
682.466	323.95
682.912	330.35
683.357	330.45
683.802	356.75
684.247	379.45
684.692	426.55
685.137	466.35
685.583	505.25
686.028	516.05
686.473	478.15
686.918	412.25
687.363	386.25
687.807	367.65
688.252	343.35
688.697	327.85
689.142	318.45
689.587	311.25
690.032	301.25
690.477	311.75
690.921	316.65
691.366	356.35
691.811	367.45
692.255	397.25
692.7	430.85
693.145	467.75
693.589	637.45
694.034	1037.25
694.478	1402.85
694.923	1624.35
695.367	2131.45
695.812	1118.85
696.256	461.25
696.701	341.25
697.145	306.95
697.59	300.85
698.034	303.85
698.478	308.65
698.922	296.85
699.367	304.75
699.811	315.85
700.255	325.15
700.699	361.35
701.143	393.05
701.588	440.55
702.032	476.65
702.476	468.05
702.92	457.65
703.364	459.45
703.808	578.35
704.252	934.85
704.696	1331.95
705.14	1564.35
705.584	2013.05
706.027	987.25
706.471	482.85
706.915	373.55
707.359	327.25
707.803	301.35
708.246	286.25
708.69	289.15
709.134	289.85
709.577	288.35
710.021	295.15
710.465	281.45
710.908	281.55
711.352	275.05
711.795	295.35
712.239	325.85
712.682	357.25
713.126	382.05
713.569	434.95
714.012	348.35
714.456	304.05
714.899	276.85
715.342	264.15
715.786	237.85
716.229	240.85
716.672	237.55
717.115	227.25
717.558	229.65
718.002	229.85
718.445	236.95
718.888	264.75
719.331	273.55
719.774	283.05
720.217	274.55
720.66	254.75
721.103	247.05
721.546	229.65
721.989	226.85
722.432	208.55
722.874	222.95
723.317	211.85
723.76	217.75
724.203	237.15
724.645	294.85
725.088	407.75
725.531	528.15
725.974	599.45
726.416	509.65
726.859	285.65
727.301	229.05
727.744	217.85
728.187	217.25
728.629	222.75
729.071	226.45
729.514	241.45
729.956	253.05
730.399	264.35
730.841	270.05
731.283	250.95
731.726	240.15
732.168	235.85
732.61	249.75
733.053	254.95
733.495	284.45
733.937	326.05
734.379	370.75
734.821	398.45
735.263	489.35
735.705	745.05
736.148	1426.55
736.59	2355.55
737.032	2863.25
737.474	2347.45
737.916	751.85
738.357	389.95
738.799	306.25
739.241	267.85
739.683	259.85
740.125	271.15
740.567	272.55
741.008	288.95
741.45	289.45
741.892	285.75
742.334	315.65
742.775	328.55
743.217	318.95
743.658	248.55
744.1	238.75
744.542	244.65
744.983	282.15
745.425	318.55
745.866	322.55
746.307	269.05
746.749	260.45
747.19	299.75
747.632	415.75
748.073	791.15
748.514	1672.25
748.956	2625.75
749.397	3290.15
749.838	2725.75
750.279	2774.75
750.72	1394.45
751.162	504.35
751.603	294.45
752.044	226.95
752.485	199.55
752.926	183.75
753.367	191.25
753.808	178.85
754.249	177.45
754.69	168.85
755.131	173.65
755.572	172.55
756.013	160.95
756.453	170.05
756.894	177.25
757.335	172.65
757.776	181.45
758.216	178.15
758.657	175.85
759.098	182.45
759.538	204.05
759.979	244.75
760.42	334.55
760.86	631.85
761.301	1620.55
761.741	4021.85
762.182	6045.35
762.622	4276.05
763.063	1217.25
763.503	491.15
763.943	320.65
764.384	307.75
764.824	360.65
765.264	403.95
765.705	276.55
766.145	197.05
766.585	172.85
767.025	156.85
767.465	170.75
767.906	222.05
768.346	292.55
768.786	307.35
769.226	238.65
769.666	284.25
770.106	549.05
770.546	1388.05
770.986	2457.55
771.426	2232.05
771.866	737.25
772.306	299.65
772.745	189.05
773.185	155.55
773.625	158.95
774.065	143.25
774.505	167.85
774.944	270.05
775.384	582.45
775.824	1115.45
776.263	1105.65
776.703	459.85
777.142	197.35
777.582	144.65
778.021	123.45
778.461	120.85
778.9	127.55
779.34	118.35
779.779	105.65
780.219	98.05
780.658	98.05
781.097	96.95
781.537	102.25
781.976	96.05
782.415	99.85
782.855	99.45
783.294	94.55
783.733	97.85
784.172	97.35
784.611	91.95
785.05	105.45
785.489	99.25
785.928	112.25
786.367	109.55
786.806	106.45
787.245	112.25
787.684	121.45
788.123	134.35
788.562	122.05
789.001	115.45
789.44	110.05
789.879	109.75
790.317	106.35
790.756	122.65
791.195	120.35
791.634	131.15
792.072	187.45
792.511	327.35
792.95	901.75
793.388	1978.45
793.827	1818.25
794.265	616.75
794.704	258.95
795.142	165.55
795.581	136.55
796.019	125.95
796.458	111.95
796.896	111.75
797.334	119.75
797.773	139.15
798.211	201.85
798.649	395.75
799.087	924.05
799.526	1472.35
799.964	1837.35
800.402	1888.15
800.84	701.45
801.278	274.25
801.716	163.65
802.154	140.05
802.592	130.55
803.03	126.35
803.468	121.85
803.906	133.05
804.344	136.25
804.782	131.85
805.22	126.75
805.658	111.15
806.096	139.35
806.533	143.75
806.971	162.15
807.409	194.25
807.847	281.75
808.284	600.75
808.722	1676.25
809.16	3053.65
809.597	2849.05
810.035	4982.85
810.472	5484.85
810.91	1957.55
811.347	729.55
811.785	378.65
812.222	234.85
812.66	177.95
813.097	147.25
813.535	127.85
813.972	117.55
814.409	105.55
814.846	103.25
815.284	100.75
815.721	93.95
816.158	99.95
816.595	103.75
817.032	154.85
817.47	188.95
817.907	144.85
818.344	135.15
818.781	105.15
819.218	93.25
819.655	111.15
820.092	172.65
820.529	196.75
820.966	158.35
821.403	121.45
821.839	96.25
822.276	92.95
822.713	114.75
823.15	127.95
823.587	108.55
824.023	133.95
824.46	268.75
824.897	813.25
825.333	1281.35
825.77	546.05
826.206	209.95
826.643	125.45
827.08	95.15
827.516	79.75
827.953	68.45
828.389	77.85
828.825	60.65
829.262	61.15
829.698	55.55
830.135	63.25
830.571	56.85
831.007	56.45
831.443	60.35
831.88	59.75
832.316	58.75
832.752	57.35
833.188	64.75
833.624	57.55
834.06	61.55
834.497	61.35
834.933	71.15
835.369	64.65
835.805	65.85
836.241	67.55
836.677	75.15
837.112	81.75
837.548	99.15
837.984	120.75
838.42	179.05
838.856	442.95
839.292	1373.85
839.727	2169.35
840.163	994.95
840.599	833.95
841.034	1865.25
841.47	2007.05
841.906	726.05
842.341	311.15
842.777	206.65
843.212	287.65
843.648	288.55
844.083	137.25
844.519	87.35
844.954	74.85
845.39	52.05
845.825	46.45
846.261	55.15
846.696	51.45
847.131	51.45
847.566	53.35
848.002	46.25
848.437	50.05
848.872	58.55
849.307	56.45
849.742	76.95
850.177	162.55
850.613	504.25
851.048	822.15
851.483	356.75
851.918	139.05
852.353	72.95
852.788	55.95
853.223	56.65
853.657	49.45
854.092	42.55
854.527	43.15
854.962	36.15
855.397	39.75
855.832	42.35
856.266	35.45
856.701	35.95
857.136	35.05
857.57	38.75
858.005	43.25
858.44	52.85
858.874	45.05
859.309	51.25
859.743	34.35
860.178	39.55
860.612	35.65
861.047	48.65
861.481	61.45
861.915	67.25
862.35	44.25
862.784	31.95
863.218	40.05
863.653	33.05
864.087	43.65
864.521	45.15
864.955	61.85
865.39	140.55
865.824	165.85
866.258	108.65
866.692	146.45
867.126	162.55
867.56	92.55
867.994	52.25
868.428	38.05
868.862	48.95
869.296	53.45
869.73	49.65
870.164	44.95
870.598	42.45
871.031	33.95
871.465	27.25
871.899	26.55
872.333	15.85
872.766	23.45
873.2	20.45
873.634	29.95
874.067	23.95
874.501	24.35
874.935	34.25
875.368	27.85
875.802	26.15
876.235	21.85
876.669	25.35
877.102	23.55
877.535	20.65
877.969	13.85
878.402	20.65
878.836	16.55
879.269	23.55
879.702	21.45
880.135	17.95
880.569	20.45
881.002	33.45
881.435	20.15
881.868	18.15
882.301	20.95
882.734	7.55
883.167	17.35
883.601	17.25
884.034	18.15
884.467	13.85
884.899	22.15
885.332	17.85
885.765	16.05
886.198	20.85
886.631	18.15
887.064	19.95
887.497	20.15
887.929	19.05
888.362	20.35
888.795	4.65
889.228	11.95
889.66	20.85
890.093	16.75
890.526	14.75
890.958	17.65
891.391	15.55
891.823	23.15
892.256	13.55
892.688	10.85
893.121	10.45
893.553	11.25
893.985	26.25
894.418	15.65
894.85	3.05
895.282	16.25
895.715	17.25
896.147	16.55
896.579	22.95
897.011	14.85
897.444	14.25
897.876	8.75
898.308	15.75
898.74	16.65
899.172	14.15
899.604	22.95
900.036	11.95
900.468	14.35
900.9	13.95
901.332	13.85
901.764	14.55
902.196	16.85
902.628	10.95
903.06	10.25
903.491	26.45
903.923	21.15
904.355	18.95
904.787	22.85
905.218	19.25
905.65	17.85
906.082	12.35
906.513	12.75
906.945	19.25
907.376	10.65
907.808	16.85
908.239	21.05
908.671	19.05
909.102	21.15
909.534	15.25
909.965	46.65
910.397	79.05
910.828	288.15
911.259	441.65
911.691	197.15
912.122	99.35
912.553	43.65
912.984	30.95
913.415	25.85
913.847	27.15
914.278	15.25
914.709	16.45
915.14	11.75
915.571	17.75
916.002	12.75
916.433	23.75
916.864	17.55
917.295	15.75
917.726	22.15
918.157	10.65
918.587	25.05
919.018	21.05
919.449	18.55
919.88	19.05
920.311	28.85
920.741	45.85
921.172	157.75
921.603	142.05
922.033	72.75
922.464	34.15
922.895	25.35
923.325	21.25
923.756	16.05
924.186	11.65
924.617	24.15
925.047	38.35
925.478	43.25
925.908	37.45
926.338	27.85
926.769	15.55
927.199	17.85
927.629	5.25
928.06	18.95
928.49	16.95
928.92	17.75
929.35	7.35
929.78	11.15
930.21	9.15
930.641	5.15
931.071	6.85
931.501	5.95
931.931	7.35
932.361	7.65
932.791	6.05
933.221	1.25
933.651	1.95
934.08	14.15
934.51	24.95
934.94	7.05
935.37	4.85
935.8	7.95
936.229	4.95
936.659	7.85
937.089	4.25
937.519	8.35
937.948	23.35
938.378	14.55
938.807	3.35
939.237	2.25
939.666	10.05
940.096	-5.15
940.525	3.05
940.955	2.15
941.384	5.25
941.814	-4.45
942.243	-7.25
942.672	5.25
943.102	-1.55
943.531	0.65
943.96	1.75
944.39	-0.25
944.819	0.05
945.248	2.75
945.677	3.35
946.106	1.95
946.535	3.35
946.964	-3.35
947.393	1.35
947.822	1.85
948.251	-5.85
948.68	4.25
949.109	4.95
949.538	8.45
949.967	1.95
950.396	-3.85
950.825	-5.25
951.254	-2.35
951.682	-8.15
952.111	-2.05
952.54	5.65
952.969	-1.55
953.397	-3.65
953.826	5.75
954.254	-4.75
954.683	-3.35
955.112	-4.65
955.54	-4.25
955.969	1.25
956.397	4.55
956.826	-2.85
957.254	0.45
957.682	3.55
958.111	2.05
958.539	-1.75
958.967	-0.85
959.396	0.05
959.824	0.15
960.252	1.25
960.68	2.65
961.109	-8.55
961.537	-7.95
961.965	-0.65
962.393	-0.15
962.821	-0.05
963.249	-0.25
963.677	4.95
964.105	1.15
964.533	42.35
964.961	37.45
965.389	20.65
965.817	11.25
966.245	4.55
966.672	-1.35
967.1	-8.75
967.528	2.25
967.956	-4.75
968.383	-2.45
968.811	3.55
969.239	-6.05
969.666	-6.65
970.094	0.65
970.522	0.55
970.949	0.45
971.377	-6.85
971.804	-5.55
972.232	-2.45
972.659	3.35
973.087	-3.05
973.514	-0.35
973.941	-9.85
974.369	2.15
974.796	-1.15
975.223	1.15
975.651	-2.95
976.078	5.05
976.505	-2.75
976.932	3.75
977.359	16.15
977.786	14.95
978.214	3.55
978.641	-9.15
979.068	-6.65
979.495	-4.15
979.922	-0.25
980.349	4.05
980.776	7.55
981.202	1.35
981.629	8.15
982.056	1.15
982.483	-3.55
982.91	2.35
983.337	-1.75
983.763	1.65
984.19	-2.95
984.617	-2.35
985.043	-2.15
985.47	-2.45
985.897	-4.95
986.323	-1.95
986.75	1.95
987.176	-1.15
987.603	1.55
988.029	3.25
988.456	-0.75
988.882	5.25
989.308	-5.15
989.735	-7.45
990.161	0.05
990.587	-8.45
991.014	-3.15
991.44	0.65
991.866	-0.15
992.292	2.45
992.719	-2.45
993.145	0.65
993.571	-9.45
993.997	-7.65
994.423	3.25
994.849	-3.25
995.275	2.05
995.701	-1.25
996.127	-6.05
996.553	-2.45
996.979	-5.75
997.405	-0.55
997.83	-7.55
998.256	-8.35
998.682	-8.95
999.108	-10.45
999.534	-6.05
999.959	-2.85
1000.385	-7.15
1000.811	-3.35
1001.236	-8.45
1001.662	-8.35
1002.087	-12.75
1002.513	-1.45
1002.938	0.45
1003.364	-4.45
1003.789	0.65
1004.215	4.15
1004.64	1.45
1005.066	8.05
1005.491	1.25
1005.916	-1.35
1006.342	-6.45
1006.767	-4.65
1007.192	6.25
1007.617	-6.35
1008.042	-2.95
1008.468	-6.75
1008.893	-5.25
1009.318	-4.85
1009.743	-4.05
1010.168	6.15
1010.593	4.35
1011.018	-2.45
1011.443	-1.45
1011.868	-0.15
1012.293	-2.65
1012.718	-7.45
1013.143	-2.25
1013.567	3.65
1013.992	-6.85
1014.417	-14.45
1014.842	1.35
1015.267	-4.95
1015.691	-4.75
1016.116	1.45
1016.541	-2.35
1016.965	2.35
1017.39	2.15
1017.814	1.15
1018.239	0.95
1018.663	-3.85
1019.088	-9.15
1019.512	-4.95
1019.937	-0.75
1020.361	-6.35
1020.785	-8.35
1021.21	-0.55
1021.634	-1.25
1022.058	1.35
1022.483	1.15
1022.907	-3.55
1023.331	-2.35
1023.755	-3.35
1024.179	-1.25
1024.604	-5.25
1025.028	-5.35
1025.452	-3.45
1025.876	-2.95
1026.3	-0.15
1026.724	-10.25
1027.148	-9.55
1027.572	-10.25
1027.996	-4.55
1028.42	-4.25
1028.843	-4.65
1029.267	-6.35
1029.691	-2.55
1030.115	-10.75
1030.539	-6.55
1030.962	-9.35
1031.386	-6.45
1031.81	-1.95
1032.233	-2.05
1032.657	-5.15
1033.08	-4.75
1033.504	-6.75
1033.927	-6.55
1034.351	-4.85
1034.774	-7.45
1035.198	0.35
1035.621	-8.45
1036.045	-4.15
1036.468	0.95
1036.891	-11.95
1037.315	-8.95
1037.738	-11.35
1038.161	-3.25
1038.584	-4.95
1039.008	-5.95
1039.431	-2.25
1039.854	-0.65
1040.277	-7.75
1040.7	-6.65
1041.123	-1.85
1041.546	-5.65
1041.969	-6.25
1042.392	-7.35
1042.815	-6.55
1043.238	-1.85
1043.661	3.05
1044.084	-8.55
1044.507	-6.05
1044.93	-0.15
1045.352	-6.75
1045.775	-2.35
1046.198	-4.05
1046.621	-4.55
1047.043	2.75
1047.466	0.25
1047.889	-2.15
1048.311	-5.85
1048.734	-3.65
1049.156	-11.45
1049.579	-2.85
1050.001	-5.35
1050.424	2.15
1050.846	-0.35
1051.269	-8.35
1051.691	-4.05
1052.113	-0.95
1052.536	-0.25
1052.958	-1.95
1053.38	-6.35
1053.802	-11.05
1054.225	-0.75
1054.647	-10.45
1055.069	-3.25
1055.491	0.75
1055.913	0.35
1056.335	-4.65
1056.757	-4.45
1057.179	-5.75
1057.601	-2.75
1058.023	-0.85
1058.445	-3.35
1058.867	-2.35
1059.289	-0.25
1059.711	-3.95
1060.133	-4.65
1060.555	-6.05
1060.976	-2.95
1061.398	-7.25
1061.82	-5.35
1062.241	-0.95
1062.663	-8.05
1063.085	-3.85
1063.506	0.75
1063.928	-1.65
1064.35	-4.45
1064.771	-7.25
1065.193	-2.45
1065.614	-9.25
1066.035	-3.95
1066.457	-2.95
1066.878	1.85
1067.3	-6.15
1067.721	-7.85
1068.142	-2.65
1068.564	-7.15
1068.985	-5.65
1069.406	-8.25
1069.827	-8.25
1070.248	1.65
1070.67	-9.55
1071.091	-6.55
1071.512	0.15
1071.933	-5.65
1072.354	0.05
1072.775	-1.05
1073.196	-7.95
1073.617	-7.25
1074.038	-14.25
1074.459	1.65
1074.88	-11.15
1075.3	-1.15
1075.721	-2.55
1076.142	-3.65
1076.563	-8.25
1076.983	-13.25
1077.404	-5.85
1077.825	-4.35
1078.246	-7.25
1078.666	-10.35
1079.087	-4.45
1079.507	-11.35
1079.928	-6.15
1080.348	-1.15
1080.769	-7.75
1081.189	-2.95
1081.61	-4.65
1082.03	-7.05
1082.451	-4.15
1082.871	-7.35
1083.291	-2.95
1083.711	-9.75
1084.132	-2.25
1084.552	-2.75
1084.972	-1.35
1085.392	-15.55
1085.813	-10.05
1086.233	-2.85
1086.653	-3.95
1087.073	-1.05
1087.493	-4.25
1087.913	-10.45
1088.333	-10.05
1088.753	-6.85
1089.173	2.95
1089.593	-5.55
1090.013	2.05
1090.433	1.65
1090.852	-2.05
1091.272	-1.85
1091.692	0.95
1092.112	-4.05
1092.531	-8.95
1092.951	-8.35
1093.371	-3.15
1093.79	-3.05
1094.21	-4.65
1094.63	-1.95
1095.049	-6.65
1095.469	-1.15
1095.888	-8.15
1096.308	3.65
1096.727	3.45
1097.146	-9.75
1097.566	-5.05
1097.985	-2.15
1098.405	-2.95
1098.824	-10.15
1099.243	-12.45
1099.662	-10.15
1100.082	-0.25
1100.501	4.75
1100.92	-5.95
1101.339	-7.15
1101.758	-3.85
