Data from 20171114-ORNL-Ar_H_NY_Subt18_08-05-32-690.txt Node
Date: Tue Nov 14 08:05:32 EST 2017
User: Ender
Spectrometer: HR+D1039
Trigger mode: 0
Integration Time (sec): 2.730000E-2
Scans to average: 10
Electric dark correction enabled: true
Nonlinearity correction enabled: false
Boxcar width: 0
XAxis mode: Wavelengths
Number of Pixels in Spectrum: 2048
>>>>>Begin Spectral Data<<<<<
187.836	-4.96
188.309	-4.96
188.782	-4.96
189.255	-2.26
189.728	-2.46
190.201	4.44
190.674	-0.46
191.147	4.04
191.619	-9.96
192.092	-2.86
192.565	5.04
193.038	-1.26
193.511	-0.26
193.984	3.24
194.456	0.24
194.929	5.04
195.402	-1.16
195.874	3.64
196.347	-2.36
196.82	-8.26
197.292	4.64
197.765	-1.96
198.237	-11.36
198.71	-3.06
199.182	-2.26
199.655	-2.16
200.127	-0.96
200.6	-2.16
201.072	-5.36
201.544	-6.26
202.017	-4.26
202.489	6.74
202.961	0.14
203.433	-3.76
203.906	-8.66
204.378	-1.06
204.85	-2.66
205.322	-13.36
205.794	-3.96
206.266	-1.66
206.739	-5.66
207.211	-3.36
207.683	-9.76
208.155	-8.86
208.627	-3.36
209.099	-7.76
209.57	-7.16
210.042	-6.36
210.514	-10.76
210.986	0.54
211.458	-9.86
211.93	0.34
212.402	-6.36
212.873	-3.86
213.345	-11.76
213.817	-15.36
214.288	-3.76
214.76	-14.66
215.232	-3.16
215.703	-7.46
216.175	3.24
216.646	-2.76
217.118	-6.06
217.589	-6.46
218.061	-0.26
218.532	-6.96
219.004	-2.76
219.475	0.24
219.946	-3.06
220.418	-1.06
220.889	4.34
221.36	-0.66
221.832	-4.96
222.303	-9.96
222.774	0.34
223.245	-7.06
223.717	-6.16
224.188	-8.56
224.659	-14.16
225.13	-5.76
225.601	-0.26
226.072	-3.16
226.543	3.44
227.014	-3.36
227.485	-6.86
227.956	-3.66
228.427	-4.36
228.898	2.74
229.369	1.84
229.839	-2.06
230.31	-7.26
230.781	-0.26
231.252	-4.26
231.722	-2.06
232.193	-6.46
232.664	-1.26
233.135	4.04
233.605	-0.96
234.076	-4.16
234.546	5.34
235.017	4.94
235.487	0.44
235.958	4.34
236.428	-2.76
236.899	11.84
237.369	3.14
237.84	-3.36
238.31	9.24
238.78	-2.26
239.251	2.54
239.721	2.14
240.191	-2.06
240.662	-0.56
241.132	0.04
241.602	-4.56
242.072	11.04
242.542	7.44
243.013	-2.66
243.483	4.34
243.953	0.54
244.423	-2.16
244.893	-1.16
245.363	-2.86
245.833	0.24
246.303	-1.86
246.773	9.94
247.243	1.24
247.712	4.24
248.182	6.94
248.652	13.14
249.122	1.64
249.592	13.14
250.061	17.04
250.531	34.94
251.001	16.04
251.471	23.54
251.94	23.44
252.41	4.94
252.879	-0.96
253.349	15.24
253.818	10.54
254.288	3.74
254.757	2.84
255.227	3.84
255.696	5.24
256.166	13.04
256.635	7.74
257.105	9.04
257.574	4.84
258.043	8.34
258.513	13.94
258.982	16.84
259.451	9.44
259.92	14.94
260.389	12.84
260.859	17.04
261.328	15.94
261.797	17.84
262.266	9.54
262.735	8.34
263.204	8.34
263.673	-0.06
264.142	0.14
264.611	-2.76
265.08	-1.06
265.549	2.74
266.018	9.34
266.487	-0.06
266.955	-0.76
267.424	4.44
267.893	5.44
268.362	1.04
268.83	7.14
269.299	5.94
269.768	5.74
270.236	11.24
270.705	6.74
271.174	4.94
271.642	6.44
272.111	7.14
272.579	16.94
273.048	23.64
273.516	30.44
273.985	25.14
274.453	26.14
274.922	23.64
275.39	10.14
275.858	7.34
276.327	18.94
276.795	11.54
277.263	8.74
277.731	29.04
278.2	61.14
278.668	58.84
279.136	53.64
279.604	23.24
280.072	18.24
280.54	11.34
281.008	11.24
281.477	14.34
281.945	8.64
282.413	12.54
282.881	10.44
283.348	13.84
283.816	19.44
284.284	13.24
284.752	19.94
285.22	12.74
285.688	18.74
286.156	18.34
286.623	44.04
287.091	54.54
287.559	31.34
288.026	14.14
288.494	21.04
288.962	9.04
289.429	8.84
289.897	17.64
290.364	17.24
290.832	21.14
291.3	16.54
291.767	23.04
292.234	16.64
292.702	18.24
293.169	21.54
293.637	20.54
294.104	22.24
294.571	9.84
295.039	9.44
295.506	17.44
295.973	24.74
296.44	12.24
296.908	21.14
297.375	24.34
297.842	21.04
298.309	22.94
298.776	17.54
299.243	28.04
299.71	9.34
300.177	20.74
300.644	18.34
301.111	25.04
301.578	23.64
302.045	10.94
302.512	28.54
302.979	22.34
303.446	28.54
303.913	23.64
304.379	24.34
304.846	27.04
305.313	26.64
305.78	24.54
306.246	27.14
306.713	33.04
307.18	27.54
307.646	28.54
308.113	31.84
308.579	30.14
309.046	25.74
309.512	28.54
309.979	22.84
310.445	27.64
310.912	31.44
311.378	33.14
311.845	27.14
312.311	35.84
312.777	30.64
313.244	24.74
313.71	36.14
314.176	32.04
314.642	28.34
315.109	33.74
315.575	35.94
316.041	41.94
316.507	37.54
316.973	48.64
317.439	34.84
317.905	39.54
318.371	37.74
318.837	36.34
319.303	38.24
319.769	30.34
320.235	34.74
320.701	35.94
321.167	44.04
321.633	31.54
322.099	50.24
322.564	54.54
323.03	37.24
323.496	42.44
323.962	36.54
324.427	36.34
324.893	42.44
325.359	43.34
325.824	38.24
326.29	39.64
326.755	35.04
327.221	45.94
327.686	46.84
328.152	48.04
328.617	37.94
329.083	48.64
329.548	55.84
330.014	52.14
330.479	50.64
330.944	42.34
331.41	49.64
331.875	51.54
332.34	45.44
332.805	41.74
333.271	48.54
333.736	51.44
334.201	52.74
334.666	61.34
335.131	52.54
335.596	49.94
336.061	57.24
336.526	51.24
336.991	58.44
337.456	59.74
337.921	54.24
338.386	44.14
338.851	44.74
339.316	44.94
339.781	50.34
340.246	53.84
340.711	46.94
341.175	52.14
341.64	47.54
342.105	51.24
342.569	60.14
343.034	61.34
343.499	59.04
343.963	59.04
344.428	66.94
344.893	65.54
345.357	61.14
345.822	61.24
346.286	72.44
346.751	80.34
347.215	69.44
347.679	71.74
348.144	108.84
348.608	82.04
349.073	73.34
349.537	71.04
350.001	74.54
350.465	91.14
350.93	83.04
351.394	88.74
351.858	74.54
352.322	92.64
352.786	81.54
353.25	103.64
353.715	113.84
354.179	106.94
354.643	133.84
355.107	132.04
355.571	107.54
356.035	109.24
356.498	118.64
356.962	116.84
357.426	142.94
357.89	119.24
358.354	89.84
358.818	84.54
359.281	79.34
359.745	78.74
360.209	77.94
360.673	78.34
361.136	83.24
361.6	81.94
362.064	88.34
362.527	82.74
362.991	96.64
363.454	84.84
363.918	79.84
364.381	75.84
364.845	82.24
365.308	86.84
365.772	91.34
366.235	88.44
366.698	86.94
367.162	93.44
367.625	87.64
368.088	91.14
368.552	88.84
369.015	97.54
369.478	91.14
369.941	102.54
370.404	94.54
370.867	112.84
371.331	117.44
371.794	121.24
372.257	113.24
372.72	115.14
373.183	110.14
373.646	102.94
374.109	107.84
374.572	111.14
375.035	116.34
375.497	109.84
375.96	108.34
376.423	106.54
376.886	118.74
377.349	113.64
377.811	102.54
378.274	106.24
378.737	116.84
379.199	114.64
379.662	116.44
380.125	124.54
380.587	120.84
381.05	117.74
381.512	124.04
381.975	137.24
382.437	131.34
382.9	128.64
383.362	132.64
383.825	146.04
384.287	147.24
384.75	145.04
385.212	146.54
385.674	145.54
386.136	127.14
386.599	121.84
387.061	125.74
387.523	128.04
387.985	139.44
388.447	152.34
388.91	145.94
389.372	149.24
389.834	153.34
390.296	144.74
390.758	156.94
391.22	165.14
391.682	208.34
392.144	293.54
392.606	228.44
393.068	166.14
393.529	173.14
393.991	149.84
394.453	152.24
394.915	156.74
395.377	191.54
395.838	217.04
396.3	164.04
396.762	140.84
397.224	131.24
397.685	128.14
398.147	134.44
398.608	131.34
399.07	132.64
399.531	130.14
399.993	145.44
400.454	155.04
400.916	143.04
401.377	147.94
401.839	149.54
402.3	158.14
402.762	170.64
403.223	180.44
403.684	170.94
404.145	167.24
404.607	159.94
405.068	171.84
405.529	174.34
405.99	188.74
406.451	176.44
406.913	169.34
407.374	163.94
407.835	160.04
408.296	171.84
408.757	166.14
409.218	193.44
409.679	183.54
410.14	175.74
410.601	172.44
411.062	178.24
411.522	195.64
411.983	190.24
412.444	176.24
412.905	175.44
413.366	179.54
413.826	191.94
414.287	217.34
414.748	266.54
415.208	243.14
415.669	209.04
416.13	207.44
416.59	205.54
417.051	214.24
417.511	220.74
417.972	232.14
418.432	250.34
418.893	289.64
419.353	250.44
419.814	202.34
420.274	185.04
420.734	188.94
421.195	197.74
421.655	202.24
422.115	199.84
422.576	192.04
423.036	198.64
423.496	211.54
423.956	221.74
424.416	230.14
424.876	269.84
425.336	262.24
425.797	268.94
426.257	256.04
426.717	239.34
427.177	232.54
427.637	225.24
428.097	234.24
428.556	243.14
429.016	272.94
429.476	265.24
429.936	280.54
430.396	278.24
430.856	296.74
431.315	320.94
431.775	357.34
432.235	384.24
432.694	355.14
433.154	367.24
433.614	388.34
434.073	339.94
434.533	288.44
434.993	272.54
435.452	289.04
435.912	298.74
436.371	292.94
436.83	285.54
437.29	266.44
437.749	251.54
438.209	249.14
438.668	277.84
439.127	294.64
439.587	271.34
440.046	253.84
440.505	269.74
440.964	288.04
441.424	325.84
441.883	315.84
442.342	269.84
442.801	221.54
443.26	227.24
443.719	224.94
444.178	221.24
444.637	204.84
445.096	220.14
445.555	229.04
446.014	214.84
446.473	223.34
446.932	231.84
447.391	229.94
447.849	223.94
448.308	221.64
448.767	227.44
449.226	236.54
449.685	237.24
450.143	255.84
450.602	236.14
451.061	223.64
451.519	238.14
451.978	232.24
452.436	236.54
452.895	236.84
453.353	250.24
453.812	244.94
454.27	241.34
454.729	239.94
455.187	239.04
455.646	250.64
456.104	251.44
456.562	258.34
457.021	266.64
457.479	262.74
457.937	273.34
458.395	271.64
458.854	249.64
459.312	263.44
459.77	278.94
460.228	256.74
460.686	244.54
461.144	254.64
461.602	248.54
462.06	246.44
462.518	258.54
462.976	251.54
463.434	259.64
463.892	271.94
464.35	280.24
464.808	292.04
465.266	263.64
465.724	274.54
466.181	274.74
466.639	262.94
467.097	291.34
467.555	300.04
468.012	307.44
468.47	309.34
468.928	337.74
469.385	343.94
469.843	349.44
470.3	352.84
470.758	366.94
471.215	388.14
471.673	410.24
472.13	413.94
472.588	423.94
473.045	383.14
473.503	376.74
473.96	403.34
474.417	408.44
474.875	437.14
475.332	482.54
475.789	459.84
476.246	474.44
476.704	488.84
477.161	523.84
477.618	525.04
478.075	575.34
478.532	619.44
478.989	699.04
479.446	817.74
479.903	776.24
480.36	830.44
480.817	887.44
481.274	997.54
481.731	1089.04
482.188	1183.24
482.645	1330.94
483.102	1422.54
483.558	1579.14
484.015	1617.74
484.472	1595.94
484.929	1543.44
485.385	1485.24
485.842	1451.44
486.299	1375.24
486.755	1309.34
487.212	1110.54
487.668	939.14
488.125	856.94
488.582	792.54
489.038	758.84
489.494	724.84
489.951	695.34
490.407	677.64
490.864	658.64
491.32	648.34
491.776	659.14
492.233	663.34
492.689	624.14
493.145	611.84
493.602	601.24
494.058	619.54
494.514	621.94
494.97	653.04
495.426	660.44
495.882	633.24
496.338	631.84
496.794	637.04
497.251	630.74
497.707	646.94
498.163	643.04
498.618	650.04
499.074	658.34
499.53	685.44
499.986	684.84
500.442	663.54
500.898	648.74
501.354	642.14
501.809	647.14
502.265	648.14
502.721	665.54
503.177	682.94
503.632	672.04
504.088	677.24
504.543	719.24
504.999	719.74
505.455	668.04
505.91	642.74
506.366	638.74
506.821	639.34
507.277	623.94
507.732	628.64
508.187	633.84
508.643	643.14
509.098	642.84
509.553	665.14
510.009	668.24
510.464	673.14
510.919	700.24
511.375	703.74
511.83	714.24
512.285	733.74
512.74	763.54
513.195	783.34
513.65	781.74
514.105	777.04
514.56	784.14
515.015	804.74
515.47	820.14
515.925	804.14
516.38	792.64
516.835	813.44
517.29	787.04
517.745	779.34
518.2	773.04
518.655	753.34
519.109	752.84
519.564	755.54
520.019	736.54
520.474	735.24
520.928	734.34
521.383	718.54
521.838	718.94
522.292	718.54
522.747	718.34
523.201	706.24
523.656	697.84
524.11	697.74
524.565	698.14
525.019	690.34
525.474	718.54
525.928	703.84
526.382	702.04
526.837	707.54
527.291	710.24
527.745	703.44
528.2	707.04
528.654	696.04
529.108	691.94
529.562	699.64
530.016	695.44
530.47	697.44
530.925	700.84
531.379	701.84
531.833	710.14
532.287	714.34
532.741	706.64
533.195	706.94
533.649	727.74
534.103	726.04
534.556	718.24
535.01	724.64
535.464	711.34
535.918	722.34
536.372	719.24
536.826	723.94
537.279	719.44
537.733	720.14
538.187	718.04
538.64	725.94
539.094	725.04
539.548	736.34
540.001	734.54
540.455	730.34
540.908	732.24
541.362	740.74
541.815	747.34
542.269	760.94
542.722	758.34
543.175	768.84
543.629	776.64
544.082	788.64
544.536	801.84
544.989	786.44
545.442	789.34
545.895	793.34
546.349	792.04
546.802	806.64
547.255	794.14
547.708	810.24
548.161	817.34
548.614	816.74
549.067	823.44
549.52	828.64
549.973	821.34
550.426	811.24
550.879	803.74
551.332	795.14
551.785	805.54
552.238	808.54
552.691	820.44
553.144	837.64
553.596	856.54
554.049	871.54
554.502	900.94
554.955	919.84
555.407	917.44
555.86	907.44
556.313	911.24
556.765	895.44
557.218	884.74
557.67	896.94
558.123	883.84
558.576	873.74
559.028	876.44
559.48	887.44
559.933	879.24
560.385	842.74
560.838	815.84
561.29	789.34
561.742	791.54
562.195	762.14
562.647	759.94
563.099	779.54
563.551	777.94
564.004	784.84
564.456	771.14
564.908	775.64
565.36	740.64
565.812	736.54
566.264	720.84
566.716	716.24
567.168	709.54
567.62	726.74
568.072	699.54
568.524	697.94
568.976	688.34
569.428	677.94
569.88	674.24
570.332	683.64
570.784	685.74
571.235	678.04
571.687	689.34
572.139	701.74
572.59	721.44
573.042	716.04
573.494	711.14
573.945	704.94
574.397	694.34
574.849	689.74
575.3	692.94
575.752	692.54
576.203	674.04
576.655	683.74
577.106	662.54
577.557	660.94
578.009	671.34
578.46	665.74
578.912	652.04
579.363	661.04
579.814	671.04
580.265	671.94
580.717	668.64
581.168	669.94
581.619	669.64
582.07	685.34
582.521	676.24
582.972	670.64
583.423	672.84
583.875	679.54
584.326	699.34
584.777	738.34
585.227	822.64
585.678	900.44
586.129	1000.44
586.58	1058.64
587.031	1152.04
587.482	1300.74
587.933	1474.24
588.384	1298.84
588.834	962.74
589.285	793.94
589.736	774.64
590.186	766.84
590.637	757.84
591.088	734.34
591.538	723.14
591.989	720.34
592.439	730.94
592.89	721.04
593.34	701.44
593.791	708.64
594.241	696.94
594.692	703.34
595.142	703.04
595.593	702.34
596.043	712.14
596.493	709.94
596.943	714.64
597.394	711.04
597.844	706.64
598.294	722.44
598.744	740.94
599.195	769.14
599.645	798.74
600.095	844.24
600.545	901.64
600.995	957.64
601.445	1016.04
601.895	1072.44
602.345	1114.24
602.795	1107.04
603.245	1066.34
603.695	998.94
604.145	951.84
604.594	899.24
605.044	847.34
605.494	794.64
605.944	747.24
606.393	737.44
606.843	715.84
607.293	716.94
607.743	725.24
608.192	735.74
608.642	748.64
609.091	757.94
609.541	757.84
609.99	762.04
610.44	755.84
610.889	703.94
611.339	689.54
611.788	671.74
612.238	689.74
612.687	710.84
613.136	705.24
613.586	724.14
614.035	729.54
614.484	737.04
614.933	748.74
615.383	735.74
615.832	725.14
616.281	720.34
616.73	678.04
617.179	652.44
617.628	638.04
618.077	623.94
618.526	609.44
618.975	614.44
619.424	608.64
619.873	606.44
620.322	612.14
620.771	595.14
621.22	590.14
621.669	581.34
622.118	570.04
622.567	570.44
623.015	567.04
623.464	564.94
623.913	548.84
624.361	549.04
624.81	534.84
625.259	545.74
625.707	546.34
626.156	540.04
626.604	543.44
627.053	536.64
627.501	549.94
627.95	550.04
628.398	569.84
628.847	549.94
629.295	555.54
629.744	562.64
630.192	552.04
630.64	555.84
631.089	552.14
631.537	569.34
631.985	562.24
632.433	593.24
632.881	593.94
633.33	635.34
633.778	622.54
634.226	557.74
634.674	565.04
635.122	563.24
635.57	583.34
636.018	614.04
636.466	577.44
636.914	537.64
637.362	568.14
637.81	550.54
638.258	571.14
638.705	568.44
639.153	604.94
639.601	597.84
640.049	618.34
640.497	647.34
640.944	681.04
641.392	631.34
641.84	603.64
642.287	577.24
642.735	553.04
643.182	557.94
643.63	558.54
644.078	567.04
644.525	580.14
644.973	581.04
645.42	595.64
645.867	609.64
646.315	628.84
646.762	651.74
647.21	673.04
647.657	693.94
648.104	719.94
648.551	754.44
648.999	811.04
649.446	889.94
649.893	978.94
650.34	1136.44
650.787	1350.64
651.234	1669.94
651.682	2177.54
652.129	3002.64
652.576	4317.64
653.023	6338.54
653.47	8743.84
653.917	10987.14
654.363	12725.54
654.81	14172.84
655.257	13453.14
655.704	8786.74
656.151	5206.44
656.598	3343.04
657.044	2373.84
657.491	1823.54
657.938	1460.54
658.385	1226.84
658.831	1055.14
659.278	950.44
659.724	840.84
660.171	768.54
660.618	706.44
661.064	669.74
661.511	657.94
661.957	641.14
662.404	627.14
662.85	628.84
663.296	599.24
663.743	549.44
664.189	514.64
664.635	519.84
665.082	510.84
665.528	511.34
665.974	504.34
666.42	499.94
666.867	489.14
667.313	477.94
667.759	474.34
668.205	466.14
668.651	470.14
669.097	466.44
669.543	486.64
669.989	453.94
670.435	440.94
670.881	435.54
671.327	435.64
671.773	454.44
672.219	472.74
672.665	525.74
673.11	564.94
673.556	611.14
674.002	642.64
674.448	631.54
674.893	537.24
675.339	464.54
675.785	419.94
676.23	400.04
676.676	377.44
677.122	372.44
677.567	360.14
678.013	357.04
678.458	353.24
678.904	357.04
679.349	341.34
679.794	335.54
680.24	333.34
680.685	334.24
681.131	323.74
681.576	335.14
682.021	340.44
682.466	336.24
682.912	336.34
683.357	345.04
683.802	358.84
684.247	390.34
684.692	431.74
685.137	472.44
685.583	515.64
686.028	538.74
686.473	490.74
686.918	424.74
687.363	404.94
687.807	373.24
688.252	343.44
688.697	335.64
689.142	330.64
689.587	317.14
690.032	320.14
690.477	330.54
690.921	331.44
691.366	367.14
691.811	377.44
692.255	407.64
692.7	440.64
693.145	483.04
693.589	655.74
694.034	1065.14
694.478	1464.34
694.923	1677.64
695.367	2195.74
695.812	1154.34
696.256	480.14
696.701	352.54
697.145	333.04
697.59	311.74
698.034	307.34
698.478	313.24
698.922	313.04
699.367	314.34
699.811	326.24
700.255	336.54
700.699	362.34
701.143	407.54
701.588	464.94
702.032	493.34
702.476	493.34
702.92	473.24
703.364	472.54
703.808	602.74
704.252	972.84
704.696	1384.84
705.14	1609.64
705.584	2050.54
706.027	1020.04
706.471	495.04
706.915	378.84
707.359	333.74
707.803	304.14
708.246	294.34
708.69	299.34
709.134	299.94
709.577	294.84
710.021	300.14
710.465	291.04
710.908	279.54
711.352	291.24
711.795	289.54
712.239	332.44
712.682	365.74
713.126	400.24
713.569	453.54
714.012	356.74
714.456	312.54
714.899	285.84
715.342	263.64
715.786	243.14
716.229	248.54
716.672	243.84
717.115	244.64
717.558	237.34
718.002	234.34
718.445	249.84
718.888	271.54
719.331	279.64
719.774	295.94
720.217	297.34
720.66	276.14
721.103	248.74
721.546	240.44
721.989	243.04
722.432	223.74
722.874	230.04
723.317	214.14
723.76	222.24
724.203	243.34
724.645	297.14
725.088	422.54
725.531	535.84
725.974	613.14
726.416	521.34
726.859	286.44
727.301	237.44
727.744	225.24
728.187	220.64
728.629	227.14
729.071	226.24
729.514	244.24
729.956	260.74
730.399	267.44
730.841	278.74
731.283	256.84
731.726	256.34
732.168	247.14
732.61	248.34
733.053	278.04
733.495	303.84
733.937	327.34
734.379	377.34
734.821	403.94
735.263	511.94
735.705	782.14
736.148	1472.64
736.59	2444.14
737.032	2964.04
737.474	2385.74
737.916	773.54
738.357	406.74
738.799	311.14
739.241	283.54
739.683	274.34
740.125	277.64
740.567	280.84
741.008	310.34
741.45	297.74
741.892	299.34
742.334	330.04
742.775	347.84
743.217	326.24
743.658	251.94
744.1	239.84
744.542	240.54
744.983	296.74
745.425	323.54
745.866	326.44
746.307	269.84
746.749	269.24
747.19	310.24
747.632	421.74
748.073	807.64
748.514	1730.94
748.956	2728.64
749.397	3383.74
749.838	2825.84
750.279	2865.44
750.72	1429.64
751.162	528.04
751.603	304.64
752.044	238.34
752.485	203.84
752.926	202.14
753.367	194.34
753.808	185.54
754.249	179.34
754.69	177.14
755.131	173.74
755.572	172.94
756.013	176.74
756.453	169.34
756.894	177.54
757.335	181.64
757.776	185.14
758.216	183.74
758.657	179.74
759.098	185.54
759.538	210.74
759.979	251.14
760.42	353.54
760.86	654.14
761.301	1692.74
761.741	4154.14
762.182	6206.04
762.622	4372.14
763.063	1250.74
763.503	510.84
763.943	328.54
764.384	320.44
764.824	387.04
765.264	413.24
765.705	288.54
766.145	201.14
766.585	181.64
767.025	169.24
767.465	181.44
767.906	226.44
768.346	294.34
768.786	323.04
769.226	243.94
769.666	295.64
770.106	565.34
770.546	1435.74
770.986	2539.54
771.426	2285.64
771.866	756.64
772.306	313.24
772.745	197.94
773.185	164.34
773.625	157.94
774.065	152.84
774.505	180.74
774.944	282.34
775.384	627.64
775.824	1164.54
776.263	1135.84
776.703	481.04
777.142	208.54
777.582	149.44
778.021	126.94
778.461	131.74
778.9	129.84
779.34	130.84
779.779	113.74
780.219	100.84
780.658	102.04
781.097	98.54
781.537	111.94
781.976	114.04
782.415	103.34
782.855	98.74
783.294	101.14
783.733	102.64
784.172	100.14
784.611	100.44
785.05	91.44
785.489	99.84
785.928	104.54
786.367	111.04
786.806	115.04
787.245	128.44
787.684	128.54
788.123	138.34
788.562	123.44
789.001	116.44
789.44	113.74
789.879	111.64
790.317	112.84
790.756	123.94
791.195	120.14
791.634	143.04
792.072	198.04
792.511	343.54
792.95	926.44
793.388	2038.64
793.827	1882.94
794.265	656.64
794.704	265.44
795.142	173.14
795.581	138.74
796.019	129.84
796.458	118.84
796.896	110.24
797.334	126.14
797.773	138.84
798.211	206.74
798.649	402.54
799.087	963.84
799.526	1506.54
799.964	1896.64
800.402	1948.34
800.84	723.44
801.278	286.84
801.716	165.24
802.154	151.34
802.592	134.64
803.03	129.14
803.468	115.14
803.906	134.04
804.344	142.84
804.782	132.34
805.22	122.34
805.658	118.64
806.096	135.24
806.533	142.24
806.971	168.34
807.409	205.34
807.847	290.54
808.284	607.64
808.722	1723.84
809.16	3153.24
809.597	2910.74
810.035	5130.34
810.472	5596.54
810.91	1999.84
811.347	746.94
811.785	375.64
812.222	241.74
812.66	183.64
813.097	157.94
813.535	134.44
813.972	120.34
814.409	114.74
814.846	102.34
815.284	104.54
815.721	97.84
816.158	97.54
816.595	115.34
817.032	165.74
817.47	188.74
817.907	162.94
818.344	140.64
818.781	115.44
819.218	95.84
819.655	117.54
820.092	176.54
820.529	203.64
820.966	165.74
821.403	124.24
821.839	103.34
822.276	94.94
822.713	108.14
823.15	130.64
823.587	114.74
824.023	133.74
824.46	271.14
824.897	842.74
825.333	1309.44
825.77	556.54
826.206	217.24
826.643	128.84
827.08	90.64
827.516	70.44
827.953	77.34
828.389	76.34
828.825	68.04
829.262	63.44
829.698	63.34
830.135	63.14
830.571	55.54
831.007	58.34
831.443	60.44
831.88	59.94
832.316	63.24
832.752	58.04
833.188	56.24
833.624	58.94
834.06	64.44
834.497	68.64
834.933	63.74
835.369	72.64
835.805	64.64
836.241	73.44
836.677	70.84
837.112	82.54
837.548	91.74
837.984	128.24
838.42	188.74
838.856	455.74
839.292	1421.54
839.727	2211.94
840.163	1017.34
840.599	870.64
841.034	1923.54
841.47	2057.14
841.906	743.34
842.341	321.34
842.777	219.54
843.212	295.24
843.648	297.44
844.083	147.94
844.519	88.14
844.954	69.24
845.39	58.74
845.825	54.54
846.261	57.24
846.696	47.64
847.131	48.64
847.566	49.14
848.002	53.24
848.437	45.14
848.872	53.04
849.307	55.44
849.742	81.54
850.177	167.24
850.613	512.64
851.048	834.34
851.483	363.34
851.918	140.04
852.353	91.64
852.788	58.74
853.223	57.44
853.657	54.54
854.092	47.14
854.527	41.64
854.962	38.24
855.397	49.64
855.832	45.84
856.266	39.74
856.701	33.54
857.136	40.14
857.57	43.34
858.005	46.54
858.44	49.34
858.874	44.04
859.309	47.94
859.743	41.74
860.178	43.04
860.612	35.74
861.047	48.04
861.481	60.54
861.915	69.34
862.35	46.24
862.784	34.94
863.218	31.34
863.653	36.14
864.087	43.84
864.521	51.94
864.955	64.24
865.39	151.44
865.824	173.24
866.258	112.34
866.692	154.44
867.126	163.04
867.56	98.44
867.994	49.54
868.428	29.84
868.862	45.74
869.296	50.94
869.73	57.04
870.164	50.14
870.598	43.84
871.031	36.94
871.465	31.64
871.899	27.84
872.333	17.64
872.766	27.64
873.2	20.94
873.634	29.54
874.067	22.74
874.501	25.84
874.935	27.24
875.368	25.94
875.802	26.04
876.235	24.44
876.669	19.14
877.102	20.04
877.535	25.74
877.969	21.14
878.402	27.24
878.836	17.94
879.269	24.74
879.702	28.44
880.135	21.54
880.569	19.94
881.002	30.94
881.435	23.94
881.868	15.44
882.301	20.64
882.734	14.74
883.167	23.34
883.601	10.14
884.034	19.94
884.467	9.34
884.899	16.74
885.332	21.24
885.765	14.84
886.198	17.94
886.631	16.54
887.064	21.44
887.497	21.14
887.929	22.24
888.362	13.34
888.795	15.94
889.228	17.34
889.66	21.24
890.093	14.24
890.526	19.04
890.958	17.74
891.391	17.14
891.823	16.94
892.256	11.04
892.688	4.24
893.121	9.84
893.553	12.24
893.985	23.84
894.418	15.84
894.85	11.84
895.282	13.44
895.715	11.54
896.147	11.54
896.579	10.54
897.011	11.24
897.444	17.54
897.876	12.74
898.308	14.44
898.74	14.64
899.172	7.94
899.604	20.44
900.036	20.84
900.468	14.54
900.9	11.34
901.332	19.44
901.764	11.04
902.196	16.24
902.628	20.04
903.06	13.64
903.491	29.54
903.923	18.74
904.355	22.54
904.787	27.14
905.218	21.94
905.65	16.34
906.082	9.04
906.513	14.74
906.945	10.94
907.376	14.24
907.808	17.34
908.239	21.94
908.671	14.94
909.102	20.24
909.534	20.74
909.965	42.24
910.397	85.14
910.828	292.24
911.259	458.14
911.691	207.84
912.122	102.34
912.553	43.94
912.984	27.24
913.415	22.54
913.847	23.04
914.278	10.34
914.709	7.54
915.14	17.14
915.571	15.64
916.002	12.14
916.433	11.64
916.864	12.44
917.295	3.54
917.726	19.84
918.157	12.14
918.587	27.94
919.018	20.44
919.449	22.44
919.88	20.74
920.311	34.84
920.741	41.94
921.172	155.14
921.603	145.64
922.033	72.44
922.464	47.74
922.895	24.34
923.325	18.34
923.756	18.44
924.186	12.94
924.617	26.14
925.047	39.44
925.478	50.54
925.908	39.24
926.338	25.94
926.769	15.14
927.199	20.54
927.629	8.44
928.06	18.34
928.49	18.44
928.92	16.44
929.35	10.74
929.78	13.34
930.21	3.74
930.641	1.84
931.071	7.44
931.501	2.34
931.931	6.44
932.361	7.74
932.791	3.54
933.221	3.94
933.651	5.74
934.08	14.64
934.51	29.04
934.94	8.74
935.37	11.64
935.8	12.24
936.229	12.44
936.659	9.74
937.089	3.04
937.519	10.24
937.948	19.04
938.378	14.24
938.807	6.44
939.237	3.74
939.666	-0.56
940.096	-11.76
940.525	-0.66
940.955	6.34
941.384	6.64
941.814	-3.76
942.243	-3.06
942.672	-1.66
943.102	2.24
943.531	-2.26
943.96	2.14
944.39	-0.76
944.819	4.44
945.248	-3.06
945.677	4.04
946.106	7.04
946.535	6.74
946.964	-1.06
947.393	-1.06
947.822	-3.16
948.251	-7.26
948.68	7.74
949.109	3.94
949.538	8.34
949.967	-1.26
950.396	-4.06
950.825	-2.06
951.254	5.84
951.682	-3.96
952.111	4.34
952.54	6.64
952.969	-4.86
953.397	-3.56
953.826	1.04
954.254	-5.26
954.683	-0.56
955.112	-8.76
955.54	-0.76
955.969	0.54
956.397	-1.16
956.826	-3.76
957.254	5.14
957.682	3.94
958.111	4.74
958.539	5.54
958.967	3.04
959.396	-0.76
959.824	-5.66
960.252	8.04
960.68	-6.76
961.109	-4.56
961.537	-0.66
961.965	-2.66
962.393	2.14
962.821	-7.76
963.249	-4.46
963.677	5.64
964.105	6.64
964.533	38.94
964.961	39.64
965.389	22.44
965.817	10.64
966.245	4.94
966.672	-3.26
967.1	-7.36
967.528	-0.96
967.956	-2.46
968.383	3.44
968.811	-6.86
969.239	-3.26
969.666	-5.36
970.094	-0.86
970.522	-0.26
970.949	-0.46
971.377	1.24
971.804	0.54
972.232	5.14
972.659	-0.16
973.087	0.34
973.514	-3.96
973.941	-2.86
974.369	1.44
974.796	1.34
975.223	-0.16
975.651	-5.06
976.078	5.54
976.505	1.14
976.932	0.14
977.359	5.64
977.786	10.64
978.214	-5.56
978.641	-5.66
979.068	-0.26
979.495	0.64
979.922	-4.66
980.349	-6.16
980.776	4.84
981.202	-0.36
981.629	4.44
982.056	-1.36
982.483	-4.46
982.91	2.14
983.337	-2.46
983.763	1.84
984.19	-6.96
984.617	-6.36
985.043	-6.46
985.47	3.44
985.897	-2.26
986.323	-9.06
986.75	9.84
987.176	-2.86
987.603	-2.36
988.029	-1.36
988.456	-4.76
988.882	0.04
989.308	-5.56
989.735	-5.16
990.161	-0.36
990.587	-9.06
991.014	0.54
991.44	1.04
991.866	-7.26
992.292	-8.76
992.719	-5.26
993.145	4.34
993.571	-7.16
993.997	-2.96
994.423	-1.76
994.849	-4.16
995.275	-2.06
995.701	-0.56
996.127	-7.86
996.553	1.24
996.979	-1.66
997.405	-3.66
997.83	-4.16
998.256	-8.06
998.682	-0.36
999.108	-6.76
999.534	-1.96
999.959	-8.76
1000.385	-3.96
1000.811	-2.76
1001.236	-1.86
1001.662	-11.46
1002.087	-8.26
1002.513	-0.56
1002.938	-0.56
1003.364	-7.06
1003.789	-8.36
1004.215	7.64
1004.64	-4.76
1005.066	3.94
1005.491	0.64
1005.916	-5.26
1006.342	0.54
1006.767	-6.86
1007.192	5.64
1007.617	-10.36
1008.042	-1.46
1008.468	-6.86
1008.893	-6.16
1009.318	-5.86
1009.743	0.94
1010.168	-3.66
1010.593	-3.56
1011.018	-2.46
1011.443	2.04
1011.868	0.44
1012.293	-7.26
1012.718	-6.56
1013.143	-5.26
1013.567	1.14
1013.992	0.04
1014.417	-16.76
1014.842	-1.06
1015.267	-8.56
1015.691	-5.66
1016.116	4.54
1016.541	1.54
1016.965	-4.26
1017.39	0.64
1017.814	-4.26
1018.239	-4.16
1018.663	-14.16
1019.088	-14.06
1019.512	-0.36
1019.937	-2.76
1020.361	1.84
1020.785	-12.76
1021.21	-2.36
1021.634	-3.16
1022.058	-2.46
1022.483	2.74
1022.907	-10.36
1023.331	-7.96
1023.755	-2.66
1024.179	-0.06
1024.604	-6.46
1025.028	-9.76
1025.452	-4.26
1025.876	-2.26
1026.3	-2.06
1026.724	-9.66
1027.148	-3.16
1027.572	-6.26
1027.996	-2.26
1028.42	-3.36
1028.843	-2.56
1029.267	-5.86
1029.691	-5.96
1030.115	-11.16
1030.539	-14.26
1030.962	-7.06
1031.386	-14.36
1031.81	-3.16
1032.233	0.14
1032.657	-3.36
1033.08	-1.56
1033.504	-5.66
1033.927	-0.16
1034.351	-3.26
1034.774	-0.56
1035.198	-0.66
1035.621	-6.46
1036.045	-8.66
1036.468	-2.16
1036.891	-9.76
1037.315	-14.36
1037.738	-10.06
1038.161	0.54
1038.584	-8.66
1039.008	-5.56
1039.431	-5.86
1039.854	-5.16
1040.277	-12.46
1040.7	-8.16
1041.123	-4.06
1041.546	-6.36
1041.969	-4.06
1042.392	-3.86
1042.815	-5.56
1043.238	0.44
1043.661	-4.26
1044.084	-6.66
1044.507	-9.96
1044.93	-1.66
1045.352	-4.66
1045.775	-3.46
1046.198	-3.76
1046.621	-3.16
1047.043	-2.06
1047.466	7.34
1047.889	-1.06
1048.311	-1.76
1048.734	-4.26
1049.156	1.94
1049.579	-6.76
1050.001	-4.86
1050.424	-7.96
1050.846	-2.86
1051.269	2.54
1051.691	-5.66
1052.113	-4.46
1052.536	-1.76
1052.958	-6.26
1053.38	-6.56
1053.802	-9.96
1054.225	5.34
1054.647	-3.46
1055.069	-9.96
1055.491	-1.06
1055.913	-6.46
1056.335	-0.36
1056.757	-4.76
1057.179	-2.16
1057.601	-5.36
1058.023	-7.86
1058.445	-9.76
1058.867	-8.66
1059.289	-7.66
1059.711	-11.76
1060.133	4.14
1060.555	-6.46
1060.976	-6.16
1061.398	-3.66
1061.82	-10.96
1062.241	-8.56
1062.663	-11.66
1063.085	1.74
1063.506	-7.96
1063.928	-4.96
1064.35	-1.36
1064.771	-8.66
1065.193	-6.76
1065.614	-10.36
1066.035	4.34
1066.457	-7.66
1066.878	-0.46
1067.3	-7.36
1067.721	1.44
1068.142	-3.26
1068.564	-6.26
1068.985	-5.66
1069.406	-5.56
1069.827	-8.66
1070.248	-6.76
1070.67	-11.26
1071.091	-3.56
1071.512	-4.36
1071.933	-10.26
1072.354	-9.96
1072.775	-8.86
1073.196	-12.26
1073.617	-4.36
1074.038	-7.96
1074.459	-2.86
1074.88	-10.66
1075.3	3.74
1075.721	-10.96
1076.142	1.64
1076.563	2.34
1076.983	-11.16
1077.404	-5.26
1077.825	-14.16
1078.246	-7.76
1078.666	-10.66
1079.087	-4.46
1079.507	-4.76
1079.928	-3.46
1080.348	2.74
1080.769	-5.56
1081.189	-0.26
1081.61	-7.36
1082.03	-7.46
1082.451	-6.96
1082.871	-3.66
1083.291	-7.86
1083.711	-6.06
1084.132	-5.96
1084.552	-5.06
1084.972	-5.46
1085.392	-11.06
1085.813	-9.26
1086.233	-6.76
1086.653	-7.36
1087.073	1.84
1087.493	-3.86
1087.913	-7.16
1088.333	-12.46
1088.753	-6.36
1089.173	6.74
1089.593	-2.16
1090.013	-5.96
1090.433	0.34
1090.852	-1.06
1091.272	-5.06
1091.692	-1.06
1092.112	-4.06
1092.531	-7.36
1092.951	-14.06
1093.371	-4.46
1093.79	-7.06
1094.21	-6.16
1094.63	-7.16
1095.049	-3.56
1095.469	-1.16
1095.888	-6.96
1096.308	0.74
1096.727	7.74
1097.146	-5.36
1097.566	-0.96
1097.985	-6.66
1098.405	-5.76
1098.824	-1.96
1099.243	-5.86
1099.662	-9.16
1100.082	-5.06
1100.501	-2.36
1100.92	-7.06
1101.339	-7.66
1101.758	-8.06
