Data from 20171114-ORNL-Ar_H_NY_Subt18_08-04-54-201.txt Node
Date: Tue Nov 14 08:04:54 EST 2017
User: Ender
Spectrometer: HR+D1039
Trigger mode: 0
Integration Time (sec): 2.730000E-2
Scans to average: 10
Electric dark correction enabled: true
Nonlinearity correction enabled: false
Boxcar width: 0
XAxis mode: Wavelengths
Number of Pixels in Spectrum: 2048
>>>>>Begin Spectral Data<<<<<
187.836	-1.46
188.309	-1.46
188.782	-1.46
189.255	3.74
189.728	1.24
190.201	1.64
190.674	1.34
191.147	1.54
191.619	-9.46
192.092	-0.66
192.565	2.94
193.038	2.04
193.511	-2.66
193.984	-5.16
194.456	-0.36
194.929	7.54
195.402	-0.56
195.874	-1.66
196.347	-0.76
196.82	-0.96
197.292	6.44
197.765	1.64
198.237	-9.96
198.71	5.24
199.182	0.34
199.655	2.34
200.127	1.94
200.6	-4.86
201.072	1.44
201.544	-10.16
202.017	-6.66
202.489	1.74
202.961	-6.06
203.433	-2.46
203.906	-0.36
204.378	-2.76
204.85	-2.86
205.322	-3.66
205.794	-3.36
206.266	-5.36
206.739	-8.86
207.211	6.64
207.683	-7.16
208.155	-7.46
208.627	-0.46
209.099	-5.86
209.57	-9.06
210.042	-2.36
210.514	-2.26
210.986	-8.06
211.458	-5.86
211.93	0.64
212.402	4.64
212.873	-4.76
213.345	-11.86
213.817	-3.56
214.288	-4.96
214.76	-8.76
215.232	-3.96
215.703	0.74
216.175	-2.56
216.646	-6.86
217.118	-4.16
217.589	-5.36
218.061	2.74
218.532	2.44
219.004	-0.86
219.475	1.24
219.946	-2.56
220.418	-3.96
220.889	4.54
221.36	5.34
221.832	-2.06
222.303	-7.36
222.774	-1.36
223.245	-0.26
223.717	-6.36
224.188	2.24
224.659	-7.96
225.13	-1.86
225.601	3.94
226.072	2.54
226.543	2.54
227.014	0.74
227.485	0.54
227.956	-2.26
228.427	0.04
228.898	4.24
229.369	-0.46
229.839	2.94
230.31	-5.26
230.781	1.74
231.252	-5.56
231.722	-4.66
232.193	-1.26
232.664	-0.36
233.135	-1.06
233.605	-2.86
234.076	-1.56
234.546	1.24
235.017	0.04
235.487	1.84
235.958	-0.46
236.428	-0.86
236.899	11.24
237.369	2.74
237.84	1.34
238.31	4.44
238.78	5.74
239.251	-0.96
239.721	2.54
240.191	4.94
240.662	5.44
241.132	1.94
241.602	-1.66
242.072	-0.26
242.542	9.54
243.013	1.04
243.483	8.94
243.953	7.74
244.423	2.84
244.893	-3.06
245.363	8.84
245.833	6.34
246.303	0.34
246.773	9.84
247.243	5.34
247.712	5.14
248.182	11.84
248.652	9.44
249.122	1.04
249.592	13.54
250.061	25.94
250.531	32.74
251.001	14.54
251.471	25.04
251.94	27.54
252.41	13.64
252.879	1.74
253.349	10.74
253.818	5.94
254.288	4.84
254.757	6.24
255.227	3.14
255.696	7.64
256.166	6.04
256.635	9.04
257.105	14.54
257.574	1.64
258.043	12.34
258.513	12.34
258.982	17.74
259.451	2.14
259.92	13.94
260.389	13.94
260.859	23.64
261.328	17.24
261.797	12.04
262.266	10.94
262.735	13.74
263.204	10.94
263.673	-0.06
264.142	9.14
264.611	0.24
265.08	4.84
265.549	4.34
266.018	8.84
266.487	-0.16
266.955	4.94
267.424	7.34
267.893	12.14
268.362	13.04
268.83	9.94
269.299	15.84
269.768	6.24
270.236	9.84
270.705	0.54
271.174	4.34
271.642	11.24
272.111	13.34
272.579	18.24
273.048	27.64
273.516	29.34
273.985	28.44
274.453	28.64
274.922	23.74
275.39	11.04
275.858	6.34
276.327	10.44
276.795	19.44
277.263	9.94
277.731	32.74
278.2	57.84
278.668	66.04
279.136	61.94
279.604	18.34
280.072	21.54
280.54	17.94
281.008	13.74
281.477	22.34
281.945	15.34
282.413	21.54
282.881	20.04
283.348	14.04
283.816	15.94
284.284	14.44
284.752	26.84
285.22	19.24
285.688	22.54
286.156	24.44
286.623	53.64
287.091	54.84
287.559	24.84
288.026	22.64
288.494	23.54
288.962	10.44
289.429	16.34
289.897	16.94
290.364	14.54
290.832	18.44
291.3	21.54
291.767	18.24
292.234	19.64
292.702	17.84
293.169	21.04
293.637	23.84
294.104	23.14
294.571	13.54
295.039	8.24
295.506	19.24
295.973	16.24
296.44	11.04
296.908	21.84
297.375	20.64
297.842	19.24
298.309	12.64
298.776	17.14
299.243	21.44
299.71	17.24
300.177	23.64
300.644	22.54
301.111	23.44
301.578	23.94
302.045	20.64
302.512	27.24
302.979	23.54
303.446	23.64
303.913	17.64
304.379	22.24
304.846	27.74
305.313	26.44
305.78	24.94
306.246	23.54
306.713	28.14
307.18	29.74
307.646	31.74
308.113	30.94
308.579	28.04
309.046	29.64
309.512	31.14
309.979	21.94
310.445	29.64
310.912	30.34
311.378	33.74
311.845	26.94
312.311	36.34
312.777	32.34
313.244	31.14
313.71	36.24
314.176	32.84
314.642	33.94
315.109	29.84
315.575	35.54
316.041	40.74
316.507	37.84
316.973	45.14
317.439	36.74
317.905	40.44
318.371	35.84
318.837	37.54
319.303	33.34
319.769	35.64
320.235	29.74
320.701	33.14
321.167	40.64
321.633	41.14
322.099	41.64
322.564	48.24
323.03	45.14
323.496	42.94
323.962	42.94
324.427	36.44
324.893	43.44
325.359	36.64
325.824	35.64
326.29	43.44
326.755	39.94
327.221	38.54
327.686	46.24
328.152	50.14
328.617	36.84
329.083	47.94
329.548	48.14
330.014	48.24
330.479	42.24
330.944	47.44
331.41	41.14
331.875	43.54
332.34	46.44
332.805	45.34
333.271	54.44
333.736	44.84
334.201	56.74
334.666	55.94
335.131	59.44
335.596	51.24
336.061	50.74
336.526	47.34
336.991	51.94
337.456	61.64
337.921	47.44
338.386	49.34
338.851	45.34
339.316	49.74
339.781	48.04
340.246	53.44
340.711	48.74
341.175	55.14
341.64	49.14
342.105	53.64
342.569	55.44
343.034	61.14
343.499	58.54
343.963	50.84
344.428	66.04
344.893	60.94
345.357	66.04
345.822	64.04
346.286	72.34
346.751	80.14
347.215	65.74
347.679	79.24
348.144	103.94
348.608	89.94
349.073	69.44
349.537	75.84
350.001	85.94
350.465	84.34
350.93	79.24
351.394	80.54
351.858	74.34
352.322	89.44
352.786	84.34
353.25	99.14
353.715	112.94
354.179	101.94
354.643	126.64
355.107	126.94
355.571	107.04
356.035	108.54
356.498	120.64
356.962	121.74
357.426	126.14
357.89	116.24
358.354	91.74
358.818	83.84
359.281	79.94
359.745	74.94
360.209	75.34
360.673	79.64
361.136	74.84
361.6	82.54
362.064	83.94
362.527	82.24
362.991	87.54
363.454	82.54
363.918	73.64
364.381	84.54
364.845	84.44
365.308	90.04
365.772	80.74
366.235	83.84
366.698	86.04
367.162	89.64
367.625	88.44
368.088	84.04
368.552	85.24
369.015	87.74
369.478	92.84
369.941	97.34
370.404	95.44
370.867	102.74
371.331	108.64
371.794	114.74
372.257	110.44
372.72	111.94
373.183	111.84
373.646	100.74
374.109	96.54
374.572	111.64
375.035	109.54
375.497	112.14
375.96	104.34
376.423	103.64
376.886	116.44
377.349	105.34
377.811	101.94
378.274	101.84
378.737	111.44
379.199	105.14
379.662	107.34
380.125	114.64
380.587	115.04
381.05	115.54
381.512	124.94
381.975	131.24
382.437	126.34
382.9	117.44
383.362	126.24
383.825	136.34
384.287	146.74
384.75	136.94
385.212	132.34
385.674	133.14
386.136	132.94
386.599	123.54
387.061	124.84
387.523	128.64
387.985	131.34
388.447	142.04
388.91	137.64
389.372	149.54
389.834	151.24
390.296	149.34
390.758	147.84
391.22	163.74
391.682	199.34
392.144	289.64
392.606	229.74
393.068	168.24
393.529	165.54
393.991	153.54
394.453	145.64
394.915	147.54
395.377	187.64
395.838	204.64
396.3	155.04
396.762	142.64
397.224	130.94
397.685	126.84
398.147	125.44
398.608	122.04
399.07	119.34
399.531	127.94
399.993	141.74
400.454	142.64
400.916	139.84
401.377	139.64
401.839	147.64
402.3	154.24
402.762	163.34
403.223	173.04
403.684	169.24
404.145	154.44
404.607	148.94
405.068	158.14
405.529	164.04
405.99	181.74
406.451	170.24
406.913	165.14
407.374	151.74
407.835	158.04
408.296	163.44
408.757	161.94
409.218	179.74
409.679	173.44
410.14	167.04
410.601	176.74
411.062	179.94
411.522	182.04
411.983	184.24
412.444	164.74
412.905	166.44
413.366	176.94
413.826	185.94
414.287	209.64
414.748	249.14
415.208	238.44
415.669	207.04
416.13	193.64
416.59	192.94
417.051	200.04
417.511	209.44
417.972	228.94
418.432	237.24
418.893	276.04
419.353	239.94
419.814	183.94
420.274	181.64
420.734	173.74
421.195	191.44
421.655	194.24
422.115	184.14
422.576	181.64
423.036	189.84
423.496	204.34
423.956	201.74
424.416	220.84
424.876	253.04
425.336	250.24
425.797	252.94
426.257	248.34
426.717	230.74
427.177	223.64
427.637	213.34
428.097	228.14
428.556	234.24
429.016	260.04
429.476	250.54
429.936	257.54
430.396	268.74
430.856	277.54
431.315	294.44
431.775	337.14
432.235	361.64
432.694	344.44
433.154	348.24
433.614	373.44
434.073	322.34
434.533	272.84
434.993	262.14
435.452	271.64
435.912	280.84
436.371	276.94
436.83	268.14
437.29	252.84
437.749	236.04
438.209	236.64
438.668	259.74
439.127	280.64
439.587	254.04
440.046	243.64
440.505	254.84
440.964	265.14
441.424	306.54
441.883	295.54
442.342	245.04
442.801	221.14
443.26	204.64
443.719	206.24
444.178	209.64
444.637	199.54
445.096	211.64
445.555	213.74
446.014	214.24
446.473	217.64
446.932	220.34
447.391	215.44
447.849	215.44
448.308	208.04
448.767	213.74
449.226	229.84
449.685	225.54
450.143	238.14
450.602	222.14
451.061	209.44
451.519	213.24
451.978	216.34
452.436	224.84
452.895	225.94
453.353	245.74
453.812	229.34
454.27	230.24
454.729	230.94
455.187	224.34
455.646	226.74
456.104	241.14
456.562	246.64
457.021	261.24
457.479	247.04
457.937	258.54
458.395	245.64
458.854	236.24
459.312	248.44
459.77	255.74
460.228	239.54
460.686	230.64
461.144	239.44
461.602	237.44
462.06	228.84
462.518	237.34
462.976	248.54
463.434	246.04
463.892	251.64
464.35	256.54
464.808	272.74
465.266	253.04
465.724	256.04
466.181	253.94
466.639	253.64
467.097	271.34
467.555	283.54
468.012	291.74
468.47	294.14
468.928	310.84
469.385	318.14
469.843	331.64
470.3	331.54
470.758	343.44
471.215	359.14
471.673	391.04
472.13	386.84
472.588	398.44
473.045	352.34
473.503	357.34
473.96	371.74
474.417	381.54
474.875	417.74
475.332	454.24
475.789	436.94
476.246	446.54
476.704	462.84
477.161	484.64
477.618	495.64
478.075	536.04
478.532	590.24
478.989	654.04
479.446	764.14
479.903	722.44
480.36	773.24
480.817	825.64
481.274	923.44
481.731	1025.54
482.188	1107.24
482.645	1248.64
483.102	1358.04
483.558	1489.84
484.015	1543.84
484.472	1514.14
484.929	1465.74
485.385	1423.44
485.842	1384.44
486.299	1314.64
486.755	1242.44
487.212	1057.14
487.668	879.14
488.125	809.44
488.582	747.94
489.038	713.54
489.494	670.34
489.951	655.34
490.407	627.44
490.864	610.44
491.32	610.64
491.776	609.64
492.233	616.64
492.689	575.04
493.145	576.04
493.602	561.24
494.058	582.44
494.514	585.44
494.97	603.54
495.426	618.24
495.882	589.44
496.338	583.64
496.794	598.84
497.251	594.34
497.707	603.24
498.163	604.54
498.618	613.54
499.074	609.94
499.53	639.14
499.986	641.24
500.442	628.64
500.898	602.24
501.354	580.94
501.809	590.34
502.265	606.94
502.721	615.34
503.177	635.24
503.632	624.24
504.088	634.34
504.543	676.84
504.999	668.24
505.455	617.04
505.91	595.44
506.366	598.74
506.821	594.54
507.277	588.34
507.732	599.54
508.187	585.44
508.643	592.64
509.098	593.14
509.553	620.14
510.009	631.24
510.464	632.24
510.919	649.14
511.375	646.64
511.83	671.64
512.285	681.54
512.74	709.44
513.195	734.74
513.65	733.04
514.105	723.04
514.56	727.84
515.015	746.34
515.47	768.24
515.925	749.74
516.38	745.54
516.835	751.44
517.29	734.14
517.745	736.14
518.2	719.24
518.655	708.94
519.109	702.74
519.564	703.94
520.019	684.74
520.474	690.94
520.928	687.34
521.383	673.84
521.838	670.44
522.292	666.54
522.747	665.34
523.201	657.14
523.656	655.14
524.11	648.24
524.565	647.94
525.019	650.74
525.474	657.64
525.928	667.14
526.382	654.94
526.837	652.44
527.291	654.04
527.745	653.74
528.2	654.54
528.654	655.64
529.108	644.44
529.562	653.74
530.016	649.24
530.47	654.94
530.925	651.74
531.379	659.54
531.833	653.84
532.287	666.44
532.741	669.24
533.195	658.54
533.649	667.54
534.103	680.94
534.556	662.74
535.01	675.14
535.464	677.64
535.918	673.34
536.372	680.54
536.826	676.24
537.279	669.14
537.733	670.14
538.187	673.64
538.64	663.74
539.094	680.34
539.548	678.84
540.001	662.94
540.455	682.94
540.908	688.64
541.362	693.54
541.815	700.64
542.269	710.64
542.722	713.34
543.175	717.04
543.629	719.84
544.082	732.64
544.536	736.24
544.989	736.14
545.442	740.54
545.895	732.34
546.349	737.74
546.802	729.74
547.255	732.24
547.708	743.04
548.161	760.04
548.614	758.74
549.067	780.94
549.52	763.84
549.973	750.94
550.426	752.84
550.879	739.24
551.332	743.24
551.785	749.74
552.238	743.24
552.691	759.54
553.144	774.54
553.596	782.24
554.049	799.34
554.502	827.24
554.955	845.74
555.407	836.24
555.86	834.14
556.313	823.04
556.765	818.34
557.218	820.14
557.67	819.64
558.123	817.34
558.576	806.34
559.028	812.64
559.48	814.44
559.933	810.04
560.385	779.14
560.838	758.14
561.29	730.74
561.742	727.84
562.195	709.74
562.647	697.44
563.099	716.24
563.551	717.04
564.004	724.84
564.456	711.44
564.908	707.04
565.36	686.34
565.812	679.24
566.264	671.94
566.716	668.94
567.168	666.14
567.62	673.64
568.072	640.34
568.524	647.04
568.976	630.84
569.428	619.54
569.88	625.24
570.332	630.44
570.784	622.84
571.235	619.54
571.687	628.74
572.139	647.34
572.59	660.74
573.042	656.74
573.494	660.94
573.945	645.04
574.397	636.94
574.849	636.44
575.3	638.54
575.752	631.64
576.203	628.24
576.655	635.14
577.106	613.04
577.557	613.74
578.009	613.84
578.46	604.34
578.912	607.54
579.363	620.14
579.814	610.44
580.265	598.44
580.717	607.24
581.168	612.44
581.619	625.14
582.07	622.94
582.521	622.74
582.972	610.94
583.423	623.04
583.875	635.34
584.326	642.74
584.777	692.54
585.227	754.84
585.678	845.74
586.129	930.64
586.58	1006.94
587.031	1090.34
587.482	1237.74
587.933	1435.24
588.384	1228.74
588.834	905.94
589.285	737.24
589.736	717.24
590.186	698.94
590.637	697.54
591.088	674.24
591.538	666.44
591.989	666.64
592.439	659.54
592.89	659.64
593.34	649.14
593.791	648.84
594.241	643.54
594.692	639.24
595.142	649.04
595.593	628.74
596.043	641.84
596.493	658.64
596.943	644.54
597.394	653.34
597.844	643.64
598.294	658.64
598.744	685.64
599.195	708.54
599.645	740.84
600.095	774.94
600.545	822.84
600.995	877.44
601.445	931.84
601.895	981.14
602.345	1027.94
602.795	999.34
603.245	967.04
603.695	921.94
604.145	872.34
604.594	824.24
605.044	783.44
605.494	721.04
605.944	682.54
606.393	673.24
606.843	656.74
607.293	657.24
607.743	665.14
608.192	671.84
608.642	691.54
609.091	689.34
609.541	698.94
609.99	698.44
610.44	690.94
610.889	646.64
611.339	637.14
611.788	621.04
612.238	633.74
612.687	655.54
613.136	652.44
613.586	659.74
614.035	657.24
614.484	686.54
614.933	694.74
615.383	678.04
615.832	664.54
616.281	649.64
616.73	618.14
617.179	599.34
617.628	577.14
618.077	569.14
618.526	559.34
618.975	550.44
619.424	554.24
619.873	545.34
620.322	559.34
620.771	543.54
621.22	554.14
621.669	534.84
622.118	528.84
622.567	514.64
623.015	507.24
623.464	515.94
623.913	500.74
624.361	488.84
624.81	495.94
625.259	498.94
625.707	503.64
626.156	497.14
626.604	503.14
627.053	494.44
627.501	496.24
627.95	501.64
628.398	518.64
628.847	498.54
629.295	501.24
629.744	511.04
630.192	505.74
630.64	501.84
631.089	496.24
631.537	512.44
631.985	518.44
632.433	526.34
632.881	536.84
633.33	588.04
633.778	562.94
634.226	502.44
634.674	501.54
635.122	513.64
635.57	524.94
636.018	561.84
636.466	513.34
636.914	499.34
637.362	512.14
637.81	513.44
638.258	513.84
638.705	516.54
639.153	536.24
639.601	545.14
640.049	569.94
640.497	590.74
640.944	615.04
641.392	571.04
641.84	545.94
642.287	519.74
642.735	505.34
643.182	509.84
643.63	509.74
644.078	511.84
644.525	532.14
644.973	529.14
645.42	543.74
645.867	551.94
646.315	558.04
646.762	579.34
647.21	614.04
647.657	631.24
648.104	673.44
648.551	683.84
648.999	741.44
649.446	806.74
649.893	893.04
650.34	1024.14
650.787	1229.14
651.234	1537.54
651.682	1997.24
652.129	2723.14
652.576	3885.64
653.023	5783.54
653.47	7991.84
653.917	10084.44
654.363	11759.94
654.81	13175.04
655.257	12529.64
655.704	8129.64
656.151	4761.64
656.598	3079.64
657.044	2176.94
657.491	1671.14
657.938	1336.74
658.385	1114.04
658.831	967.04
659.278	864.84
659.724	757.44
660.171	707.24
660.618	650.54
661.064	615.94
661.511	589.24
661.957	581.44
662.404	573.64
662.85	571.84
663.296	550.94
663.743	496.14
664.189	482.94
664.635	478.34
665.082	473.84
665.528	457.94
665.974	455.44
666.42	452.94
666.867	446.04
667.313	435.54
667.759	426.74
668.205	431.04
668.651	428.14
669.097	432.04
669.543	443.04
669.989	417.04
670.435	398.44
670.881	390.74
671.327	399.24
671.773	410.64
672.219	424.94
672.665	473.14
673.11	503.44
673.556	549.94
674.002	587.04
674.448	578.84
674.893	480.84
675.339	424.64
675.785	379.64
676.23	367.74
676.676	346.04
677.122	331.54
677.567	318.54
678.013	321.64
678.458	315.24
678.904	316.64
679.349	302.04
679.794	310.04
680.24	305.24
680.685	302.54
681.131	303.54
681.576	296.04
682.021	312.84
682.466	300.44
682.912	306.14
683.357	304.14
683.802	330.74
684.247	354.04
684.692	399.74
685.137	436.34
685.583	471.14
686.028	490.44
686.473	452.64
686.918	383.34
687.363	365.94
687.807	342.64
688.252	313.04
688.697	315.74
689.142	293.54
689.587	292.14
690.032	283.34
690.477	296.74
690.921	305.14
691.366	327.74
691.811	352.14
692.255	374.64
692.7	396.84
693.145	425.74
693.589	599.24
694.034	949.94
694.478	1313.94
694.923	1518.74
695.367	2003.64
695.812	1038.24
696.256	432.34
696.701	329.04
697.145	298.24
697.59	287.44
698.034	276.64
698.478	286.44
698.922	296.74
699.367	286.94
699.811	292.34
700.255	306.34
700.699	328.94
701.143	363.94
701.588	413.34
702.032	447.24
702.476	453.34
702.92	425.44
703.364	428.34
703.808	536.34
704.252	870.54
704.696	1238.04
705.14	1457.34
705.584	1868.24
706.027	927.44
706.471	449.44
706.915	345.84
707.359	305.54
707.803	278.24
708.246	275.34
708.69	275.14
709.134	272.84
709.577	273.84
710.021	273.84
710.465	268.34
710.908	255.34
711.352	256.44
711.795	273.94
712.239	303.54
712.682	333.24
713.126	361.74
713.569	407.64
714.012	331.24
714.456	279.74
714.899	253.44
715.342	234.14
715.786	232.54
716.229	224.64
716.672	220.24
717.115	220.04
717.558	219.14
718.002	214.24
718.445	225.84
718.888	247.84
719.331	258.44
719.774	274.04
720.217	261.34
720.66	249.74
721.103	233.44
721.546	223.64
721.989	223.44
722.432	203.34
722.874	207.34
723.317	197.24
723.76	200.64
724.203	227.34
724.645	278.34
725.088	380.14
725.531	489.74
725.974	557.34
726.416	468.44
726.859	269.94
727.301	207.44
727.744	203.94
728.187	200.54
728.629	212.74
729.071	210.94
729.514	231.64
729.956	233.74
730.399	245.84
730.841	247.34
731.283	236.14
731.726	234.24
732.168	225.44
732.61	231.34
733.053	242.44
733.495	272.04
733.937	305.84
734.379	337.24
734.821	373.84
735.263	457.74
735.705	697.24
736.148	1312.84
736.59	2191.24
737.032	2667.94
737.474	2192.94
737.916	707.64
738.357	365.74
738.799	281.04
739.241	258.04
739.683	245.64
740.125	256.64
740.567	252.04
741.008	271.04
741.45	277.84
741.892	275.34
742.334	300.94
742.775	307.64
743.217	298.04
743.658	234.84
744.1	220.24
744.542	223.64
744.983	272.14
745.425	304.74
745.866	305.34
746.307	245.44
746.749	237.74
747.19	275.54
747.632	381.24
748.073	728.04
748.514	1551.94
748.956	2457.94
749.397	3079.74
749.838	2539.14
750.279	2596.84
750.72	1305.64
751.162	471.54
751.603	280.04
752.044	213.04
752.485	194.24
752.926	179.14
753.367	171.74
753.808	164.74
754.249	167.24
754.69	159.04
755.131	154.34
755.572	156.54
756.013	153.34
756.453	162.24
756.894	162.34
757.335	169.04
757.776	166.84
758.216	164.84
758.657	169.24
759.098	173.94
759.538	197.04
759.979	225.44
760.42	313.64
760.86	589.94
761.301	1509.94
761.741	3729.24
762.182	5668.54
762.622	3994.64
763.063	1142.14
763.503	466.84
763.943	300.44
764.384	301.84
764.824	364.74
765.264	400.14
765.705	274.64
766.145	182.44
766.585	164.94
767.025	156.24
767.465	167.34
767.906	213.44
768.346	289.24
768.786	305.74
769.226	226.84
769.666	271.24
770.106	514.54
770.546	1299.54
770.986	2294.94
771.426	2082.94
771.866	686.04
772.306	284.54
772.745	176.34
773.185	144.84
773.625	148.54
774.065	144.34
774.505	176.44
774.944	271.04
775.384	597.64
775.824	1122.74
776.263	1111.14
776.703	472.04
777.142	198.24
777.582	143.44
778.021	127.54
778.461	121.04
778.9	121.84
779.34	124.64
779.779	96.64
780.219	95.04
780.658	96.34
781.097	96.64
781.537	98.14
781.976	94.44
782.415	95.24
782.855	83.94
783.294	85.64
783.733	86.74
784.172	93.24
784.611	87.04
785.05	90.34
785.489	98.74
785.928	96.34
786.367	107.04
786.806	109.84
787.245	117.34
787.684	122.24
788.123	128.44
788.562	120.34
789.001	111.94
789.44	104.74
789.879	103.54
790.317	94.24
790.756	111.84
791.195	114.54
791.634	130.54
792.072	179.24
792.511	298.84
792.95	836.04
793.388	1849.74
793.827	1725.54
794.265	590.24
794.704	247.14
795.142	157.44
795.581	132.74
796.019	114.44
796.458	108.04
796.896	105.84
797.334	111.44
797.773	129.94
798.211	186.84
798.649	358.54
799.087	852.64
799.526	1355.94
799.964	1717.84
800.402	1774.64
800.84	658.84
801.278	260.24
801.716	155.54
802.154	135.94
802.592	128.44
803.03	122.44
803.468	115.64
803.906	124.24
804.344	133.74
804.782	117.24
805.22	120.14
805.658	112.04
806.096	125.34
806.533	130.34
806.971	155.04
807.409	196.04
807.847	269.04
808.284	544.14
808.722	1549.84
809.16	2853.84
809.597	2644.74
810.035	4660.94
810.472	5163.64
810.91	1838.64
811.347	688.24
811.785	347.44
812.222	224.54
812.66	175.54
813.097	141.54
813.535	121.24
813.972	113.74
814.409	109.94
814.846	95.64
815.284	100.34
815.721	96.24
816.158	93.24
816.595	97.04
817.032	149.64
817.47	176.94
817.907	143.94
818.344	135.84
818.781	99.14
819.218	91.14
819.655	105.74
820.092	167.54
820.529	187.44
820.966	151.74
821.403	117.34
821.839	97.64
822.276	95.04
822.713	105.64
823.15	124.14
823.587	98.84
824.023	128.54
824.46	247.64
824.897	751.64
825.333	1183.84
825.77	508.54
826.206	201.14
826.643	120.14
827.08	88.34
827.516	72.24
827.953	69.14
828.389	68.04
828.825	61.34
829.262	55.24
829.698	52.04
830.135	60.14
830.571	48.44
831.007	57.64
831.443	53.14
831.88	56.34
832.316	52.64
832.752	50.84
833.188	60.84
833.624	50.54
834.06	60.84
834.497	58.84
834.933	66.04
835.369	71.34
835.805	52.64
836.241	60.94
836.677	70.74
837.112	72.24
837.548	91.24
837.984	117.54
838.42	168.34
838.856	413.34
839.292	1291.44
839.727	2012.84
840.163	929.84
840.599	771.74
841.034	1742.44
841.47	1888.94
841.906	685.14
842.341	287.54
842.777	200.44
843.212	276.74
843.648	281.04
844.083	137.44
844.519	86.34
844.954	71.84
845.39	51.24
845.825	49.84
846.261	50.84
846.696	49.04
847.131	41.74
847.566	49.64
848.002	46.34
848.437	47.64
848.872	51.24
849.307	52.14
849.742	76.74
850.177	151.24
850.613	469.94
851.048	769.34
851.483	337.54
851.918	133.14
852.353	76.84
852.788	56.94
853.223	46.34
853.657	48.94
854.092	39.44
854.527	33.74
854.962	39.04
855.397	47.04
855.832	42.04
856.266	37.84
856.701	35.74
857.136	30.84
857.57	37.24
858.005	41.04
858.44	49.94
858.874	32.44
859.309	43.84
859.743	31.14
860.178	36.54
860.612	35.54
861.047	47.24
861.481	56.64
861.915	55.24
862.35	43.94
862.784	31.24
863.218	34.24
863.653	28.54
864.087	46.24
864.521	55.34
864.955	59.64
865.39	133.14
865.824	151.54
866.258	101.44
866.692	140.14
867.126	160.54
867.56	96.14
867.994	50.04
868.428	29.34
868.862	38.04
869.296	47.14
869.73	49.54
870.164	48.74
870.598	38.34
871.031	29.84
871.465	24.84
871.899	30.84
872.333	20.14
872.766	23.14
873.2	26.24
873.634	28.74
874.067	21.94
874.501	19.94
874.935	34.64
875.368	31.54
875.802	27.24
876.235	21.64
876.669	19.94
877.102	18.34
877.535	21.74
877.969	17.04
878.402	18.94
878.836	18.64
879.269	23.64
879.702	20.44
880.135	22.24
880.569	24.44
881.002	25.44
881.435	16.74
881.868	15.44
882.301	21.44
882.734	12.84
883.167	21.74
883.601	14.44
884.034	17.04
884.467	17.34
884.899	22.74
885.332	15.74
885.765	16.74
886.198	12.64
886.631	21.24
887.064	21.94
887.497	18.34
887.929	20.84
888.362	19.54
888.795	11.04
889.228	17.84
889.66	17.74
890.093	15.24
890.526	18.44
890.958	16.54
891.391	16.64
891.823	15.84
892.256	13.54
892.688	9.54
893.121	17.84
893.553	14.94
893.985	15.44
894.418	22.64
894.85	9.34
895.282	14.24
895.715	15.94
896.147	20.74
896.579	17.04
897.011	14.14
897.444	17.74
897.876	13.64
898.308	13.44
898.74	17.04
899.172	9.14
899.604	22.14
900.036	17.04
900.468	15.94
900.9	13.54
901.332	23.04
901.764	12.34
902.196	18.54
902.628	14.94
903.06	20.94
903.491	27.64
903.923	14.34
904.355	17.04
904.787	19.34
905.218	16.54
905.65	20.34
906.082	10.84
906.513	15.94
906.945	15.24
907.376	14.64
907.808	19.64
908.239	18.44
908.671	23.84
909.102	26.14
909.534	24.04
909.965	44.44
910.397	79.84
910.828	277.74
911.259	419.34
911.691	193.74
912.122	87.44
912.553	44.74
912.984	32.54
913.415	19.84
913.847	22.24
914.278	16.04
914.709	15.24
915.14	17.64
915.571	17.34
916.002	10.74
916.433	19.64
916.864	16.34
917.295	8.84
917.726	23.14
918.157	12.34
918.587	25.84
919.018	20.44
919.449	24.24
919.88	17.34
920.311	27.34
920.741	39.84
921.172	143.34
921.603	133.64
922.033	60.24
922.464	39.84
922.895	20.44
923.325	17.34
923.756	14.64
924.186	14.64
924.617	29.04
925.047	37.14
925.478	53.24
925.908	39.44
926.338	22.44
926.769	18.74
927.199	18.54
927.629	10.34
928.06	12.84
928.49	18.54
928.92	13.84
929.35	10.14
929.78	11.54
930.21	7.04
930.641	8.84
931.071	8.04
931.501	6.24
931.931	7.74
932.361	14.74
932.791	3.44
933.221	4.54
933.651	6.04
934.08	15.44
934.51	26.04
934.94	5.24
935.37	8.84
935.8	9.84
936.229	6.54
936.659	6.24
937.089	3.64
937.519	13.64
937.948	21.54
938.378	15.04
938.807	7.04
939.237	4.84
939.666	11.74
940.096	-1.56
940.525	2.14
940.955	-0.16
941.384	0.64
941.814	-5.66
942.243	1.04
942.672	6.14
943.102	-6.26
943.531	1.54
943.96	6.14
944.39	5.54
944.819	0.54
945.248	3.44
945.677	6.64
946.106	9.94
946.535	5.64
946.964	2.64
947.393	4.94
947.822	0.84
948.251	-7.26
948.68	-1.76
949.109	11.54
949.538	9.34
949.967	2.24
950.396	0.84
950.825	1.84
951.254	-3.26
951.682	-6.16
952.111	6.84
952.54	8.14
952.969	-2.46
953.397	-2.56
953.826	-0.96
954.254	-3.26
954.683	4.64
955.112	3.84
955.54	3.94
955.969	-1.56
956.397	2.14
956.826	4.04
957.254	9.54
957.682	1.94
958.111	7.14
958.539	0.54
958.967	-0.36
959.396	-2.36
959.824	1.44
960.252	0.24
960.68	-4.66
961.109	3.54
961.537	-3.16
961.965	1.34
962.393	2.24
962.821	0.24
963.249	4.04
963.677	4.74
964.105	10.14
964.533	35.44
964.961	35.04
965.389	20.74
965.817	10.14
966.245	-2.26
966.672	0.04
967.1	-2.86
967.528	7.54
967.956	0.94
968.383	5.94
968.811	-6.66
969.239	-1.96
969.666	-3.66
970.094	0.64
970.522	2.24
970.949	-3.26
971.377	-8.56
971.804	0.34
972.232	2.54
972.659	0.54
973.087	-3.46
973.514	-6.96
973.941	-5.56
974.369	0.74
974.796	5.74
975.223	1.94
975.651	-2.16
976.078	4.14
976.505	-0.26
976.932	4.64
977.359	15.54
977.786	14.24
978.214	8.74
978.641	1.64
979.068	-3.76
979.495	-2.86
979.922	4.24
980.349	-4.66
980.776	6.64
981.202	4.24
981.629	5.84
982.056	1.44
982.483	-4.76
982.91	6.24
983.337	-8.86
983.763	0.74
984.19	-4.86
984.617	-6.36
985.043	-3.56
985.47	1.24
985.897	0.14
986.323	-5.56
986.75	6.24
987.176	3.94
987.603	2.74
988.029	4.44
988.456	-0.76
988.882	7.54
989.308	-8.46
989.735	-0.36
990.161	0.54
990.587	-2.56
991.014	-4.06
991.44	12.84
991.866	1.44
992.292	-6.56
992.719	0.34
993.145	2.04
993.571	-12.76
993.997	-1.46
994.423	-0.46
994.849	-9.36
995.275	5.84
995.701	6.74
996.127	-1.96
996.553	-1.26
996.979	-2.56
997.405	-4.46
997.83	-3.66
998.256	-6.66
998.682	-4.76
999.108	-9.06
999.534	-0.96
999.959	-1.46
1000.385	-5.96
1000.811	3.64
1001.236	-3.86
1001.662	-2.06
1002.087	-7.56
1002.513	3.84
1002.938	0.74
1003.364	2.74
1003.789	-6.16
1004.215	1.64
1004.64	3.54
1005.066	8.74
1005.491	-0.36
1005.916	7.34
1006.342	-4.06
1006.767	-4.36
1007.192	3.74
1007.617	-5.46
1008.042	-6.56
1008.468	-4.36
1008.893	-2.86
1009.318	3.04
1009.743	0.24
1010.168	6.94
1010.593	-0.46
1011.018	-6.26
1011.443	-3.06
1011.868	4.24
1012.293	-4.66
1012.718	-6.16
1013.143	5.04
1013.567	0.84
1013.992	-3.16
1014.417	-16.76
1014.842	4.74
1015.267	-5.96
1015.691	-2.96
1016.116	7.34
1016.541	-3.56
1016.965	-1.46
1017.39	3.84
1017.814	-0.76
1018.239	0.74
1018.663	-5.96
1019.088	-11.76
1019.512	-8.36
1019.937	-2.76
1020.361	-0.26
1020.785	-11.56
1021.21	-3.26
1021.634	-2.46
1022.058	-2.16
1022.483	2.34
1022.907	-2.66
1023.331	-8.46
1023.755	-2.86
1024.179	-5.26
1024.604	-7.36
1025.028	-0.86
1025.452	-5.86
1025.876	2.64
1026.3	-4.36
1026.724	-9.86
1027.148	-6.16
1027.572	-8.06
1027.996	-0.76
1028.42	-2.66
1028.843	-5.76
1029.267	-3.56
1029.691	-1.86
1030.115	-2.86
1030.539	-4.46
1030.962	-9.16
1031.386	-6.96
1031.81	3.54
1032.233	2.04
1032.657	-0.16
1033.08	1.94
1033.504	-3.66
1033.927	-8.36
1034.351	2.64
1034.774	0.94
1035.198	2.64
1035.621	-7.56
1036.045	-3.06
1036.468	4.54
1036.891	-11.26
1037.315	-11.66
1037.738	-6.06
1038.161	2.54
1038.584	-5.76
1039.008	-9.86
1039.431	-2.86
1039.854	1.54
1040.277	-9.16
1040.7	-11.76
1041.123	-0.86
1041.546	-5.56
1041.969	-4.16
1042.392	-1.56
1042.815	0.54
1043.238	3.84
1043.661	2.34
1044.084	-11.46
1044.507	-4.66
1044.93	-1.36
1045.352	-8.26
1045.775	-0.06
1046.198	-1.66
1046.621	-1.56
1047.043	0.44
1047.466	5.14
1047.889	1.24
1048.311	-6.46
1048.734	-7.56
1049.156	0.24
1049.579	-3.26
1050.001	-8.86
1050.424	2.54
1050.846	1.94
1051.269	-2.76
1051.691	-6.96
1052.113	-4.46
1052.536	-1.36
1052.958	-5.26
1053.38	-6.26
1053.802	-13.36
1054.225	2.34
1054.647	-9.66
1055.069	0.84
1055.491	1.14
1055.913	-4.46
1056.335	-1.86
1056.757	2.04
1057.179	-6.36
1057.601	-0.76
1058.023	-3.36
1058.445	-3.06
1058.867	-1.96
1059.289	-3.56
1059.711	-8.66
1060.133	3.24
1060.555	-2.26
1060.976	-2.36
1061.398	-3.76
1061.82	-1.56
1062.241	-5.46
1062.663	-3.56
1063.085	-6.56
1063.506	5.94
1063.928	-4.96
1064.35	0.54
1064.771	-7.16
1065.193	-0.16
1065.614	-3.26
1066.035	-2.06
1066.457	-2.66
1066.878	-0.56
1067.3	-2.66
1067.721	-2.16
1068.142	-4.66
1068.564	-2.26
1068.985	-0.96
1069.406	6.24
1069.827	-1.46
1070.248	2.94
1070.67	-9.76
1071.091	1.14
1071.512	3.14
1071.933	-4.86
1072.354	-2.66
1072.775	-4.26
1073.196	-11.86
1073.617	-1.06
1074.038	-3.76
1074.459	-0.06
1074.88	-10.16
1075.3	2.84
1075.721	-5.76
1076.142	6.14
1076.563	0.74
1076.983	-12.56
1077.404	-3.56
1077.825	-9.56
1078.246	-1.06
1078.666	-6.66
1079.087	-6.76
1079.507	-4.96
1079.928	0.94
1080.348	0.34
1080.769	0.84
1081.189	-0.86
1081.61	-0.36
1082.03	-7.26
1082.451	-1.76
1082.871	-4.46
1083.291	-5.16
1083.711	-4.86
1084.132	-3.16
1084.552	-6.66
1084.972	-3.26
1085.392	-6.46
1085.813	-10.56
1086.233	-7.06
1086.653	-3.36
1087.073	-1.16
1087.493	-7.36
1087.913	-1.26
1088.333	-2.76
1088.753	-3.86
1089.173	5.34
1089.593	-4.46
1090.013	3.14
1090.433	-0.76
1090.852	-5.66
1091.272	-4.96
1091.692	0.64
1092.112	-3.76
1092.531	-7.06
1092.951	-7.56
1093.371	1.14
1093.79	-1.36
1094.21	-0.56
1094.63	-2.76
1095.049	-5.06
1095.469	-0.96
1095.888	-4.76
1096.308	-0.16
1096.727	3.74
1097.146	-4.06
1097.566	2.04
1097.985	-0.76
1098.405	1.84
1098.824	-7.16
1099.243	-5.36
1099.662	-4.36
1100.082	-1.16
1100.501	-3.06
1100.92	-3.96
1101.339	-4.86
1101.758	0.24
