Data from Subt2_09-57-45-254.txt Node
Date: Fri Apr 06 09:57:45 EDT 2018
User: janas
Spectrometer: HR+D1039
Trigger mode: 0
Integration Time (sec): 1.600000E-3
Scans to average: 1
Electric dark correction enabled: true
Nonlinearity correction enabled: false
Boxcar width: 0
XAxis mode: Wavelengths
Number of Pixels in Spectrum: 2048
>>>>>Begin Spectral Data<<<<<
187.836	13
188.309	13
188.782	13
189.255	-19
189.728	4
190.201	2
190.674	2
191.147	-8
191.619	-11
192.092	7
192.565	-14
193.038	5
193.511	6
193.984	13
194.456	0
194.929	3
195.402	-7
195.874	4
196.347	-24
196.82	-13
197.292	-17
197.765	0
198.237	-11
198.71	11
199.182	-18
199.655	-20
200.127	-13
200.6	-2
201.072	-27
201.544	-11
202.017	4
202.489	7
202.961	-11
203.433	-8
203.906	4
204.378	18
204.85	4
205.322	-13
205.794	-7
206.266	-8
206.739	11
207.211	-18
207.683	1
208.155	12
208.627	2
209.099	-17
209.57	6
210.042	10
210.514	0
210.986	-32
211.458	-2
211.93	-9
212.402	-6
212.873	0
213.345	9
213.817	19
214.288	-1
214.76	26
215.232	-7
215.703	-3
216.175	-20
216.646	2
217.118	-10
217.589	-12
218.061	26
218.532	2
219.004	-7
219.475	-12
219.946	-15
220.418	-3
220.889	-8
221.36	7
221.832	2
222.303	-13
222.774	-10
223.245	1
223.717	-1
224.188	-26
224.659	-16
225.13	9
225.601	-11
226.072	-5
226.543	10
227.014	-5
227.485	-9
227.956	-2
228.427	-12
228.898	17
229.369	9
229.839	-13
230.31	10
230.781	12
231.252	12
231.722	-44
232.193	-5
232.664	32
233.135	-1
233.605	7
234.076	26
234.546	6
235.017	14
235.487	-25
235.958	-7
236.428	-12
236.899	-32
237.369	7
237.84	-18
238.31	-9
238.78	-4
239.251	10
239.721	-8
240.191	-9
240.662	-4
241.132	5
241.602	-5
242.072	10
242.542	4
243.013	9
243.483	-1
243.953	-14
244.423	-8
244.893	0
245.363	-10
245.833	-2
246.303	5
246.773	-2
247.243	5
247.712	2
248.182	1
248.652	7
249.122	-2
249.592	-5
250.061	2
250.531	-9
251.001	-8
251.471	-1
251.94	29
252.41	15
252.879	-17
253.349	5
253.818	-12
254.288	4
254.757	1
255.227	-1
255.696	7
256.166	16
256.635	-12
257.105	-5
257.574	18
258.043	-6
258.513	4
258.982	1
259.451	2
259.92	12
260.389	-18
260.859	-24
261.328	-2
261.797	-4
262.266	10
262.735	9
263.204	6
263.673	-6
264.142	-1
264.611	-20
265.08	3
265.549	13
266.018	17
266.487	-18
266.955	0
267.424	10
267.893	-13
268.362	-3
268.83	-1
269.299	-8
269.768	4
270.236	9
270.705	-4
271.174	0
271.642	18
272.111	-3
272.579	13
273.048	-6
273.516	8
273.985	19
274.453	-7
274.922	8
275.39	-9
275.858	-35
276.327	-7
276.795	16
277.263	-9
277.731	-28
278.2	-9
278.668	-10
279.136	-13
279.604	-12
280.072	11
280.54	-8
281.008	9
281.477	-5
281.945	-3
282.413	-13
282.881	-1
283.348	-27
283.816	-17
284.284	-6
284.752	38
285.22	6
285.688	-1
286.156	-13
286.623	-17
287.091	-13
287.559	9
288.026	-1
288.494	-27
288.962	-30
289.429	-6
289.897	2
290.364	3
290.832	-9
291.3	13
291.767	8
292.234	-6
292.702	19
293.169	10
293.637	-10
294.104	2
294.571	2
295.039	-15
295.506	-18
295.973	-4
296.44	-6
296.908	-7
297.375	-2
297.842	1
298.309	11
298.776	-19
299.243	-1
299.71	-7
300.177	17
300.644	14
301.111	-5
301.578	4
302.045	-8
302.512	-14
302.979	7
303.446	-21
303.913	-2
304.379	-2
304.846	14
305.313	-6
305.78	5
306.246	-26
306.713	2
307.18	3
307.646	11
308.113	-2
308.579	8
309.046	-3
309.512	-6
309.979	-8
310.445	-15
310.912	-3
311.378	-11
311.845	23
312.311	1
312.777	-16
313.244	2
313.71	19
314.176	-2
314.642	2
315.109	-12
315.575	-34
316.041	-18
316.507	-12
316.973	-13
317.439	-9
317.905	20
318.371	17
318.837	9
319.303	0
319.769	-38
320.235	17
320.701	-9
321.167	-4
321.633	8
322.099	21
322.564	8
323.03	-9
323.496	-5
323.962	-14
324.427	4
324.893	6
325.359	13
325.824	-8
326.29	18
326.755	-6
327.221	4
327.686	-5
328.152	-17
328.617	13
329.083	-12
329.548	13
330.014	-16
330.479	10
330.944	6
331.41	-10
331.875	8
332.34	-7
332.805	-21
333.271	10
333.736	-10
334.201	-2
334.666	-29
335.131	-2
335.596	0
336.061	2
336.526	-3
336.991	-21
337.456	-14
337.921	2
338.386	6
338.851	4
339.316	6
339.781	4
340.246	22
340.711	20
341.175	-22
341.64	7
342.105	-5
342.569	2
343.034	0
343.499	9
343.963	6
344.428	5
344.893	23
345.357	15
345.822	22
346.286	1
346.751	-18
347.215	20
347.679	-1
348.144	6
348.608	-11
349.073	-11
349.537	-2
350.001	-3
350.465	1
350.93	-5
351.394	9
351.858	-4
352.322	14
352.786	-19
353.25	-8
353.715	4
354.179	-8
354.643	-1
355.107	11
355.571	-12
356.035	-2
356.498	0
356.962	-13
357.426	5
357.89	1
358.354	-6
358.818	8
359.281	37
359.745	20
360.209	4
360.673	-9
361.136	-9
361.6	-14
362.064	-8
362.527	35
362.991	7
363.454	-6
363.918	27
364.381	12
364.845	8
365.308	-3
365.772	17
366.235	0
366.698	4
367.162	-13
367.625	-14
368.088	12
368.552	-2
369.015	-12
369.478	-11
369.941	15
370.404	7
370.867	12
371.331	11
371.794	-5
372.257	3
372.72	-2
373.183	2
373.646	3
374.109	-3
374.572	15
375.035	-8
375.497	-13
375.96	-30
376.423	-11
376.886	-17
377.349	4
377.811	13
378.274	4
378.737	5
379.199	-6
379.662	3
380.125	1
380.587	-18
381.05	16
381.512	10
381.975	7
382.437	-8
382.9	-13
383.362	-13
383.825	-14
384.287	-17
384.75	-7
385.212	18
385.674	-9
386.136	6
386.599	-15
387.061	-6
387.523	-4
387.985	8
388.447	22
388.91	4
389.372	-12
389.834	-25
390.296	-2
390.758	3
391.22	-3
391.682	2
392.144	-5
392.606	-10
393.068	-5
393.529	-6
393.991	-3
394.453	9
394.915	4
395.377	-5
395.838	7
396.3	7
396.762	28
397.224	-1
397.685	9
398.147	-12
398.608	8
399.07	0
399.531	-14
399.993	6
400.454	-2
400.916	6
401.377	-6
401.839	-11
402.3	13
402.762	7
403.223	-14
403.684	-12
404.145	16
404.607	16
405.068	20
405.529	13
405.99	-34
406.451	-13
406.913	8
407.374	-5
407.835	10
408.296	-17
408.757	-7
409.218	-7
409.679	-20
410.14	18
410.601	24
411.062	1
411.522	-17
411.983	-1
412.444	-14
412.905	2
413.366	-4
413.826	18
414.287	-13
414.748	-18
415.208	0
415.669	6
416.13	-10
416.59	13
417.051	-2
417.511	19
417.972	-12
418.432	20
418.893	22
419.353	17
419.814	14
420.274	-4
420.734	-7
421.195	-3
421.655	18
422.115	1
422.576	18
423.036	7
423.496	-6
423.956	34
424.416	24
424.876	-2
425.336	-10
425.797	-22
426.257	14
426.717	5
427.177	4
427.637	-6
428.097	7
428.556	7
429.016	2
429.476	13
429.936	5
430.396	23
430.856	-1
431.315	-8
431.775	5
432.235	10
432.694	3
433.154	15
433.614	-3
434.073	35
434.533	14
434.993	-11
435.452	-11
435.912	23
436.371	19
436.83	1
437.29	-6
437.749	22
438.209	15
438.668	10
439.127	6
439.587	5
440.046	-29
440.505	-9
440.964	13
441.424	5
441.883	15
442.342	2
442.801	-6
443.26	19
443.719	17
444.178	3
444.637	-8
445.096	-6
445.555	-8
446.014	-6
446.473	8
446.932	-13
447.391	9
447.849	-3
448.308	16
448.767	5
449.226	-5
449.685	7
450.143	20
450.602	-17
451.061	-2
451.519	8
451.978	10
452.436	-1
452.895	-17
453.353	1
453.812	13
454.27	-38
454.729	-3
455.187	14
455.646	-11
456.104	-16
456.562	2
457.021	6
457.479	22
457.937	-5
458.395	-3
458.854	9
459.312	-28
459.77	3
460.228	-7
460.686	-2
461.144	0
461.602	3
462.06	-2
462.518	-1
462.976	-12
463.434	-11
463.892	0
464.35	0
464.808	14
465.266	-14
465.724	3
466.181	13
466.639	7
467.097	-14
467.555	11
468.012	20
468.47	1
468.928	-10
469.385	10
469.843	33
470.3	-3
470.758	-1
471.215	18
471.673	-10
472.13	1
472.588	14
473.045	-3
473.503	-11
473.96	18
474.417	-22
474.875	20
475.332	3
475.789	-1
476.246	-12
476.704	-8
477.161	0
477.618	5
478.075	-13
478.532	20
478.989	14
479.446	-2
479.903	15
480.36	-25
480.817	0
481.274	3
481.731	22
482.188	-1
482.645	9
483.102	-5
483.558	-9
484.015	15
484.472	7
484.929	2
485.385	5
485.842	6
486.299	-4
486.755	-1
487.212	21
487.668	-10
488.125	5
488.582	16
489.038	19
489.494	7
489.951	-2
490.407	15
490.864	-1
491.32	19
491.776	0
492.233	-9
492.689	7
493.145	-4
493.602	5
494.058	15
494.514	20
494.97	11
495.426	3
495.882	16
496.338	3
496.794	21
497.251	12
497.707	-2
498.163	-7
498.618	13
499.074	8
499.53	4
499.986	10
500.442	-11
500.898	-16
501.354	17
501.809	11
502.265	20
502.721	2
503.177	-4
503.632	18
504.088	18
504.543	11
504.999	-3
505.455	6
505.91	1
506.366	13
506.821	-2
507.277	0
507.732	7
508.187	10
508.643	8
509.098	5
509.553	-7
510.009	6
510.464	14
510.919	-5
511.375	-1
511.83	-22
512.285	22
512.74	-3
513.195	-8
513.65	-11
514.105	-4
514.56	8
515.015	-14
515.47	19
515.925	-8
516.38	12
516.835	-3
517.29	2
517.745	-4
518.2	-11
518.655	-10
519.109	-5
519.564	-9
520.019	13
520.474	1
520.928	-6
521.383	0
521.838	-15
522.292	-6
522.747	0
523.201	12
523.656	14
524.11	-31
524.565	20
525.019	8
525.474	6
525.928	-12
526.382	10
526.837	3
527.291	16
527.745	17
528.2	13
528.654	3
529.108	21
529.562	-11
530.016	-2
530.47	7
530.925	1
531.379	6
531.833	1
532.287	13
532.741	5
533.195	0
533.649	10
534.103	13
534.556	18
535.01	8
535.464	3
535.918	1
536.372	21
536.826	-17
537.279	-13
537.733	5
538.187	5
538.64	27
539.094	7
539.548	-10
540.001	-8
540.455	5
540.908	-10
541.362	22
541.815	-7
542.269	15
542.722	6
543.175	7
543.629	13
544.082	-1
544.536	-8
544.989	-9
545.442	18
545.895	-8
546.349	-35
546.802	17
547.255	29
547.708	24
548.161	6
548.614	4
549.067	-13
549.52	-5
549.973	19
550.426	20
550.879	13
551.332	0
551.785	0
552.238	2
552.691	4
553.144	-17
553.596	-12
554.049	-6
554.502	18
554.955	0
555.407	-24
555.86	-19
556.313	9
556.765	8
557.218	9
557.67	3
558.123	6
558.576	13
559.028	1
559.48	23
559.933	-3
560.385	10
560.838	12
561.29	15
561.742	8
562.195	15
562.647	4
563.099	26
563.551	-3
564.004	18
564.456	-16
564.908	4
565.36	7
565.812	13
566.264	26
566.716	7
567.168	22
567.62	-9
568.072	13
568.524	6
568.976	1
569.428	-2
569.88	-10
570.332	6
570.784	3
571.235	-1
571.687	-7
572.139	19
572.59	13
573.042	0
573.494	-22
573.945	3
574.397	-7
574.849	-20
575.3	-9
575.752	-9
576.203	6
576.655	-8
577.106	16
577.557	-4
578.009	4
578.46	-20
578.912	24
579.363	-19
579.814	-19
580.265	-10
580.717	23
581.168	0
581.619	-6
582.07	1
582.521	9
582.972	31
583.423	-4
583.875	-17
584.326	19
584.777	10
585.227	1
585.678	4
586.129	34
586.58	3
587.031	15
587.482	6
587.933	20
588.384	49
588.834	18
589.285	-16
589.736	-12
590.186	-9
590.637	2
591.088	-21
591.538	10
591.989	16
592.439	11
592.89	-1
593.34	-20
593.791	-15
594.241	14
594.692	-3
595.142	5
595.593	2
596.043	6
596.493	8
596.943	31
597.394	-17
597.844	25
598.294	-9
598.744	1
599.195	2
599.645	-16
600.095	-21
600.545	4
600.995	19
601.445	31
601.895	28
602.345	28
602.795	12
603.245	-16
603.695	3
604.145	-12
604.594	-10
605.044	17
605.494	11
605.944	4
606.393	15
606.843	-6
607.293	0
607.743	-2
608.192	-14
608.642	-5
609.091	15
609.541	26
609.99	0
610.44	16
610.889	-5
611.339	29
611.788	9
612.238	5
612.687	2
613.136	0
613.586	-9
614.035	3
614.484	-10
614.933	-10
615.383	-22
615.832	26
616.281	8
616.73	8
617.179	-19
617.628	0
618.077	-10
618.526	6
618.975	-14
619.424	-18
619.873	12
620.322	12
620.771	9
621.22	6
621.669	-10
622.118	17
622.567	2
623.015	5
623.464	0
623.913	8
624.361	15
624.81	-18
625.259	-7
625.707	-15
626.156	9
626.604	20
627.053	-15
627.501	2
627.95	3
628.398	13
628.847	-3
629.295	10
629.744	-9
630.192	1
630.64	-2
631.089	-33
631.537	4
631.985	-6
632.433	7
632.881	1
633.33	8
633.778	13
634.226	15
634.674	7
635.122	6
635.57	8
636.018	-14
636.466	-4
636.914	10
637.362	18
637.81	17
638.258	-4
638.705	11
639.153	-3
639.601	2
640.049	0
640.497	5
640.944	3
641.392	6
641.84	-16
642.287	-3
642.735	17
643.182	-7
643.63	-18
644.078	-7
644.525	-15
644.973	15
645.42	12
645.867	0
646.315	-3
646.762	-2
647.21	-11
647.657	-19
648.104	-2
648.551	3
648.999	19
649.446	16
649.893	20
650.34	-10
650.787	-4
651.234	0
651.682	12
652.129	-18
652.576	-7
653.023	-6
653.47	5
653.917	6
654.363	-9
654.81	-2
655.257	12
655.704	16
656.151	9
656.598	10
657.044	-25
657.491	7
657.938	-4
658.385	-3
658.831	13
659.278	-7
659.724	22
660.171	3
660.618	1
661.064	1
661.511	5
661.957	-41
662.404	-7
662.85	-1
663.296	14
663.743	7
664.189	-14
664.635	-3
665.082	2
665.528	2
665.974	12
666.42	19
666.867	6
667.313	18
667.759	9
668.205	-2
668.651	2
669.097	-14
669.543	4
669.989	4
670.435	-1
670.881	-11
671.327	-5
671.773	11
672.219	29
672.665	2
673.11	-7
673.556	14
674.002	36
674.448	39
674.893	0
675.339	18
675.785	-5
676.23	4
676.676	9
677.122	16
677.567	5
678.013	12
678.458	-19
678.904	-3
679.349	-16
679.794	-7
680.24	4
680.685	-20
681.131	18
681.576	7
682.021	12
682.466	-19
682.912	-10
683.357	8
683.802	4
684.247	9
684.692	15
685.137	9
685.583	18
686.028	33
686.473	-5
686.918	11
687.363	16
687.807	3
688.252	-1
688.697	13
689.142	-10
689.587	-8
690.032	22
690.477	24
690.921	42
691.366	-24
691.811	20
692.255	25
692.7	35
693.145	37
693.589	73
694.034	196
694.478	581
694.923	1495
695.367	3020
695.812	2595
696.256	445
696.701	112
697.145	51
697.59	39
698.034	13
698.478	27
698.922	8
699.367	9
699.811	16
700.255	20
700.699	15
701.143	0
701.588	14
702.032	-10
702.476	2
702.92	4
703.364	17
703.808	27
704.252	69
704.696	180
705.14	478
705.584	1113
706.027	793
706.471	139
706.915	39
707.359	33
707.803	4
708.246	-12
708.69	-12
709.134	11
709.577	6
710.021	8
710.465	28
710.908	-2
711.352	2
711.795	-7
712.239	5
712.682	-17
713.126	74
713.569	136
714.012	96
714.456	27
714.899	-6
715.342	-11
715.786	3
716.229	29
716.672	-9
717.115	2
717.558	-1
718.002	0
718.445	2
718.888	23
719.331	14
719.774	5
720.217	-7
720.66	5
721.103	9
721.546	-9
721.989	14
722.432	10
722.874	-6
723.317	28
723.76	-8
724.203	12
724.645	23
725.088	51
725.531	153
725.974	487
726.416	832
726.859	239
727.301	37
727.744	32
728.187	15
728.629	-1
729.071	-11
729.514	17
729.956	8
730.399	6
730.841	6
731.283	12
731.726	24
732.168	7
732.61	9
733.053	30
733.495	22
733.937	19
734.379	24
734.821	-7
735.263	26
735.705	38
736.148	104
736.59	266
737.032	916
737.474	2280
737.916	695
738.357	122
738.799	38
739.241	11
739.683	27
740.125	18
740.567	25
741.008	19
741.45	1
741.892	6
742.334	-3
742.775	17
743.217	14
743.658	25
744.1	19
744.542	4
744.983	10
745.425	28
745.866	25
746.307	45
746.749	28
747.19	24
747.632	55
748.073	62
748.514	209
748.956	804
749.397	2521
749.838	1378
750.279	1360
750.72	1560
751.162	343
751.603	99
752.044	45
752.485	17
752.926	28
753.367	8
753.808	12
754.249	20
754.69	20
755.131	7
755.572	33
756.013	14
756.453	25
756.894	36
757.335	-11
757.776	23
758.216	21
758.657	31
759.098	30
759.538	32
759.979	38
760.42	53
760.86	128
761.301	217
761.741	614
762.182	3019
762.622	9556
763.063	2759
763.503	513
763.943	160
764.384	89
764.824	75
765.264	49
765.705	42
766.145	42
766.585	21
767.025	33
767.465	6
767.906	44
768.346	32
768.786	12
769.226	33
769.666	28
770.106	85
770.546	206
770.986	840
771.426	3819
771.866	2056
772.306	362
772.745	116
773.185	42
773.625	27
774.065	24
774.505	-10
774.944	28
775.384	23
775.824	13
776.263	-9
776.703	16
777.142	33
777.582	11
778.021	22
778.461	32
778.9	3
779.34	10
779.779	3
780.219	-3
780.658	7
781.097	1
781.537	-16
781.976	-5
782.415	17
782.855	26
783.294	-4
783.733	37
784.172	6
784.611	-2
785.05	-1
785.489	8
785.928	-18
786.367	10
786.806	4
787.245	4
787.684	1
788.123	7
788.562	14
789.001	19
789.44	11
789.879	-23
790.317	11
790.756	11
791.195	-2
791.634	16
792.072	29
792.511	41
792.95	80
793.388	274
793.827	1424
794.265	1076
794.704	187
795.142	62
795.581	12
796.019	44
796.458	19
796.896	25
797.334	12
797.773	18
798.211	23
798.649	51
799.087	141
799.526	812
799.964	1221
800.402	1231
800.84	1247
801.278	302
801.716	97
802.154	43
802.592	25
803.03	31
803.468	21
803.906	15
804.344	-14
804.782	16
805.22	25
805.658	34
806.096	12
806.533	35
806.971	41
807.409	25
807.847	70
808.284	54
808.722	159
809.16	830
809.597	1995
810.035	948
810.472	2948
810.91	3344
811.347	729
811.785	188
812.222	86
812.66	57
813.097	30
813.535	72
813.972	8
814.409	25
814.846	2
815.284	40
815.721	15
816.158	-24
816.595	0
817.032	23
817.47	20
817.907	-17
818.344	19
818.781	14
819.218	4
819.655	7
820.092	15
820.529	6
820.966	25
821.403	-7
821.839	-1
822.276	-6
822.713	25
823.15	27
823.587	35
824.023	41
824.46	35
824.897	107
825.333	1055
825.77	1705
826.206	480
826.643	110
827.08	37
827.516	36
827.953	17
828.389	-4
828.825	5
829.262	6
829.698	15
830.135	4
830.571	24
831.007	-33
831.443	-2
831.88	-3
832.316	13
832.752	8
833.188	-21
833.624	10
834.06	-5
834.497	9
834.933	17
835.369	12
835.805	-1
836.241	3
836.677	19
837.112	12
837.548	24
837.984	15
838.42	40
838.856	28
839.292	106
839.727	829
840.163	1261
840.599	432
841.034	307
841.47	1438
841.906	1300
842.341	399
842.777	101
843.212	46
843.648	25
844.083	31
844.519	34
844.954	2
845.39	-7
845.825	13
846.261	0
846.696	27
847.131	2
847.566	32
848.002	-1
848.437	7
848.872	7
849.307	29
849.742	10
850.177	-10
850.613	50
851.048	327
851.483	519
851.918	181
852.353	43
852.788	0
853.223	7
853.657	18
854.092	-7
854.527	32
854.962	0
855.397	2
855.832	4
856.266	8
856.701	5
857.136	-11
857.57	-5
858.005	-4
858.44	12
858.874	-6
859.309	8
859.743	-20
860.178	6
860.612	3
861.047	5
861.481	1
861.915	3
862.35	6
862.784	14
863.218	-6
863.653	8
864.087	-5
864.521	-2
864.955	-9
865.39	14
865.824	57
866.258	69
866.692	17
867.126	-18
867.56	-6
867.994	10
868.428	-5
868.862	0
869.296	-3
869.73	-19
870.164	-22
870.598	-3
871.031	-8
871.465	2
871.899	0
872.333	-14
872.766	7
873.2	-8
873.634	-35
874.067	-12
874.501	-6
874.935	32
875.368	-1
875.802	16
876.235	-10
876.669	-3
877.102	4
877.535	-1
877.969	-24
878.402	-32
878.836	2
879.269	-12
879.702	-39
880.135	-8
880.569	-1
881.002	16
881.435	12
881.868	18
882.301	-5
882.734	14
883.167	-4
883.601	-7
884.034	-20
884.467	20
884.899	0
885.332	-9
885.765	18
886.198	-29
886.631	-8
887.064	-32
887.497	8
887.929	8
888.362	1
888.795	-18
889.228	2
889.66	10
890.093	6
890.526	-4
890.958	-3
891.391	1
891.823	6
892.256	-5
892.688	-12
893.121	-3
893.553	17
893.985	13
894.418	13
894.85	7
895.282	13
895.715	14
896.147	22
896.579	-38
897.011	13
897.444	-6
897.876	2
898.308	-7
898.74	-10
899.172	-36
899.604	7
900.036	-11
900.468	1
900.9	13
901.332	-19
901.764	9
902.196	13
902.628	-3
903.06	-9
903.491	11
903.923	-10
904.355	-12
904.787	-3
905.218	29
905.65	40
906.082	-6
906.513	5
906.945	-21
907.376	-8
907.808	-8
908.239	16
908.671	21
909.102	15
909.534	35
909.965	28
910.397	39
910.828	129
911.259	910
911.691	988
912.122	368
912.553	187
912.984	92
913.415	13
913.847	-1
914.278	11
914.709	3
915.14	3
915.571	-1
916.002	12
916.433	8
916.864	7
917.295	22
917.726	-4
918.157	5
918.587	13
919.018	-12
919.449	-15
919.88	22
920.311	21
920.741	9
921.172	61
921.603	170
922.033	102
922.464	32
922.895	27
923.325	-8
923.756	-24
924.186	19
924.617	-4
925.047	-1
925.478	-5
925.908	10
926.338	12
926.769	-15
927.199	5
927.629	3
928.06	-5
928.49	-8
928.92	14
929.35	25
929.78	9
930.21	-12
930.641	-5
931.071	36
931.501	10
931.931	-27
932.361	12
932.791	18
933.221	-15
933.651	-4
934.08	11
934.51	14
934.94	22
935.37	6
935.8	31
936.229	-17
936.659	6
937.089	5
937.519	24
937.948	7
938.378	-12
938.807	2
939.237	-2
939.666	-23
940.096	-3
940.525	6
940.955	-6
941.384	8
941.814	-8
942.243	18
942.672	9
943.102	12
943.531	13
943.96	-3
944.39	10
944.819	-1
945.248	10
945.677	-18
946.106	4
946.535	-20
946.964	12
947.393	2
947.822	13
948.251	20
948.68	-17
949.109	0
949.538	-5
949.967	-9
950.396	0
950.825	-1
951.254	-17
951.682	-6
952.111	-22
952.54	2
952.969	19
953.397	-4
953.826	6
954.254	-10
954.683	4
955.112	-4
955.54	4
955.969	12
956.397	15
956.826	19
957.254	19
957.682	-18
958.111	-18
958.539	7
958.967	34
959.396	30
959.824	11
960.252	2
960.68	5
961.109	30
961.537	-16
961.965	16
962.393	16
962.821	-6
963.249	-9
963.677	19
964.105	11
964.533	42
964.961	155
965.389	123
965.817	69
966.245	13
966.672	5
967.1	-8
967.528	-8
967.956	0
968.383	-16
968.811	8
969.239	6
969.666	1
970.094	-8
970.522	-9
970.949	6
971.377	-12
971.804	15
972.232	11
972.659	-1
973.087	2
973.514	-5
973.941	-20
974.369	-18
974.796	-4
975.223	-13
975.651	9
976.078	-1
976.505	-10
976.932	-5
977.359	4
977.786	18
978.214	8
978.641	-2
979.068	-12
979.495	-5
979.922	-11
980.349	15
980.776	-11
981.202	6
981.629	-23
982.056	-8
982.483	-3
982.91	-20
983.337	-30
983.763	15
984.19	2
984.617	-5
985.043	-2
985.47	4
985.897	-5
986.323	9
986.75	-16
987.176	26
987.603	33
988.029	13
988.456	-2
988.882	1
989.308	-15
989.735	4
990.161	10
990.587	5
991.014	-7
991.44	-2
991.866	-11
992.292	-8
992.719	-1
993.145	29
993.571	25
993.997	5
994.423	-2
994.849	-4
995.275	5
995.701	4
996.127	-4
996.553	-6
996.979	0
997.405	5
997.83	5
998.256	-4
998.682	0
999.108	1
999.534	-20
999.959	-5
1000.385	-13
1000.811	-29
1001.236	6
1001.662	-27
1002.087	-3
1002.513	4
1002.938	11
1003.364	26
1003.789	-1
1004.215	5
1004.64	4
1005.066	3
1005.491	0
1005.916	3
1006.342	-14
1006.767	-5
1007.192	-11
1007.617	16
1008.042	4
1008.468	-11
1008.893	-5
1009.318	19
1009.743	14
1010.168	-29
1010.593	2
1011.018	25
1011.443	0
1011.868	-17
1012.293	20
1012.718	-7
1013.143	4
1013.567	3
1013.992	-20
1014.417	15
1014.842	10
1015.267	21
1015.691	-8
1016.116	-1
1016.541	6
1016.965	10
1017.39	-3
1017.814	24
1018.239	5
1018.663	7
1019.088	-6
1019.512	30
1019.937	13
1020.361	-25
1020.785	13
1021.21	-7
1021.634	21
1022.058	-22
1022.483	7
1022.907	-21
1023.331	2
1023.755	-23
1024.179	-16
1024.604	-16
1025.028	2
1025.452	22
1025.876	0
1026.3	7
1026.724	7
1027.148	18
1027.572	-2
1027.996	-20
1028.42	-7
1028.843	6
1029.267	3
1029.691	4
1030.115	13
1030.539	-19
1030.962	5
1031.386	-8
1031.81	-13
1032.233	0
1032.657	0
1033.08	-5
1033.504	-26
1033.927	11
1034.351	-28
1034.774	0
1035.198	-5
1035.621	-8
1036.045	-14
1036.468	10
1036.891	17
1037.315	-1
1037.738	-20
1038.161	-15
1038.584	9
1039.008	3
1039.431	3
1039.854	-8
1040.277	-2
1040.7	17
1041.123	2
1041.546	-4
1041.969	-3
1042.392	-3
1042.815	3
1043.238	15
1043.661	3
1044.084	22
1044.507	14
1044.93	12
1045.352	9
1045.775	-4
1046.198	-23
1046.621	1
1047.043	-12
1047.466	6
1047.889	-20
1048.311	-16
1048.734	8
1049.156	-5
1049.579	14
1050.001	-12
1050.424	13
1050.846	7
1051.269	17
1051.691	7
1052.113	14
1052.536	-3
1052.958	-10
1053.38	-1
1053.802	8
1054.225	17
1054.647	7
1055.069	2
1055.491	-17
1055.913	21
1056.335	12
1056.757	20
1057.179	11
1057.601	-10
1058.023	-9
1058.445	-6
1058.867	-4
1059.289	18
1059.711	-5
1060.133	4
1060.555	-16
1060.976	-23
1061.398	6
1061.82	-5
1062.241	-5
1062.663	0
1063.085	15
1063.506	-7
1063.928	-7
1064.35	6
1064.771	-13
1065.193	-29
1065.614	3
1066.035	-13
1066.457	-13
1066.878	5
1067.3	3
1067.721	11
1068.142	10
1068.564	9
1068.985	4
1069.406	-7
1069.827	-7
1070.248	-15
1070.67	-12
1071.091	-9
1071.512	17
1071.933	-18
1072.354	-3
1072.775	-3
1073.196	10
1073.617	14
1074.038	13
1074.459	-3
1074.88	-12
1075.3	12
1075.721	-12
1076.142	-11
1076.563	-7
1076.983	-5
1077.404	-3
1077.825	-18
1078.246	-33
1078.666	-5
1079.087	17
1079.507	-20
1079.928	-18
1080.348	-10
1080.769	16
1081.189	3
1081.61	-1
1082.03	-18
1082.451	-10
1082.871	11
1083.291	5
1083.711	6
1084.132	3
1084.552	6
1084.972	-6
1085.392	11
1085.813	-11
1086.233	-8
1086.653	-16
1087.073	19
1087.493	-11
1087.913	12
1088.333	6
1088.753	-3
1089.173	-23
1089.593	-4
1090.013	-6
1090.433	-16
1090.852	-4
1091.272	-11
1091.692	16
1092.112	-7
1092.531	20
1092.951	-7
1093.371	-19
1093.79	-14
1094.21	-6
1094.63	-32
1095.049	1
1095.469	31
1095.888	14
1096.308	-4
1096.727	-28
1097.146	-13
1097.566	13
1097.985	-3
1098.405	11
1098.824	7
1099.243	-11
1099.662	-8
1100.082	9
1100.501	-1
1100.92	6
1101.339	-18
1101.758	12
