Data from 20170802-ORNL-NYSim-Air_HRD10391_10-37-06-627.txt Node
Date: Wed Aug 02 10:37:06 EDT 2017
User: Ender
Spectrometer: HR+D1039
Trigger mode: 0
Integration Time (sec): 1.510000E-3
Scans to average: 1
Electric dark correction enabled: true
Nonlinearity correction enabled: false
Boxcar width: 0
XAxis mode: Wavelengths
Number of Pixels in Spectrum: 2048
>>>>>Begin Spectral Data<<<<<
187.836	6.19
188.309	6.19
188.782	6.19
189.255	4.19
189.728	-11.81
190.201	5.19
190.674	-21.81
191.147	-20.81
191.619	-7.81
192.092	-16.81
192.565	-7.81
193.038	6.19
193.511	1.19
193.984	4.19
194.456	3.19
194.929	16.19
195.402	10.19
195.874	30.19
196.347	20.19
196.82	47.19
197.292	11.19
197.765	34.19
198.237	41.19
198.71	40.19
199.182	52.19
199.655	44.19
200.127	51.19
200.6	59.19
201.072	44.19
201.544	54.19
202.017	60.19
202.489	69.19
202.961	59.19
203.433	84.19
203.906	69.19
204.378	80.19
204.85	58.19
205.322	68.19
205.794	81.19
206.266	82.19
206.739	98.19
207.211	81.19
207.683	81.19
208.155	74.19
208.627	70.19
209.099	88.19
209.57	81.19
210.042	61.19
210.514	73.19
210.986	81.19
211.458	83.19
211.93	82.19
212.402	100.19
212.873	95.19
213.345	92.19
213.817	74.19
214.288	79.19
214.76	93.19
215.232	84.19
215.703	74.19
216.175	80.19
216.646	76.19
217.118	67.19
217.589	63.19
218.061	64.19
218.532	87.19
219.004	74.19
219.475	65.19
219.946	72.19
220.418	82.19
220.889	63.19
221.36	78.19
221.832	78.19
222.303	59.19
222.774	70.19
223.245	78.19
223.717	75.19
224.188	62.19
224.659	68.19
225.13	64.19
225.601	73.19
226.072	79.19
226.543	58.19
227.014	77.19
227.485	78.19
227.956	96.19
228.427	70.19
228.898	79.19
229.369	91.19
229.839	79.19
230.31	75.19
230.781	91.19
231.252	84.19
231.722	76.19
232.193	91.19
232.664	74.19
233.135	71.19
233.605	76.19
234.076	87.19
234.546	75.19
235.017	105.19
235.487	89.19
235.958	84.19
236.428	62.19
236.899	68.19
237.369	83.19
237.84	80.19
238.31	69.19
238.78	83.19
239.251	67.19
239.721	79.19
240.191	75.19
240.662	82.19
241.132	76.19
241.602	84.19
242.072	87.19
242.542	77.19
243.013	86.19
243.483	82.19
243.953	74.19
244.423	88.19
244.893	82.19
245.363	93.19
245.833	91.19
246.303	94.19
246.773	93.19
247.243	88.19
247.712	96.19
248.182	82.19
248.652	89.19
249.122	82.19
249.592	73.19
250.061	82.19
250.531	82.19
251.001	75.19
251.471	79.19
251.94	88.19
252.41	86.19
252.879	93.19
253.349	86.19
253.818	82.19
254.288	90.19
254.757	84.19
255.227	86.19
255.696	86.19
256.166	87.19
256.635	96.19
257.105	76.19
257.574	93.19
258.043	79.19
258.513	78.19
258.982	91.19
259.451	86.19
259.92	97.19
260.389	100.19
260.859	82.19
261.328	96.19
261.797	107.19
262.266	102.19
262.735	117.19
263.204	104.19
263.673	84.19
264.142	105.19
264.611	88.19
265.08	101.19
265.549	76.19
266.018	102.19
266.487	91.19
266.955	103.19
267.424	104.19
267.893	99.19
268.362	108.19
268.83	93.19
269.299	98.19
269.768	87.19
270.236	94.19
270.705	86.19
271.174	97.19
271.642	100.19
272.111	100.19
272.579	105.19
273.048	92.19
273.516	104.19
273.985	100.19
274.453	87.19
274.922	102.19
275.39	103.19
275.858	105.19
276.327	90.19
276.795	110.19
277.263	105.19
277.731	100.19
278.2	103.19
278.668	105.19
279.136	118.19
279.604	116.19
280.072	103.19
280.54	96.19
281.008	110.19
281.477	96.19
281.945	98.19
282.413	106.19
282.881	100.19
283.348	125.19
283.816	106.19
284.284	103.19
284.752	107.19
285.22	104.19
285.688	101.19
286.156	97.19
286.623	97.19
287.091	109.19
287.559	114.19
288.026	120.19
288.494	126.19
288.962	123.19
289.429	117.19
289.897	118.19
290.364	106.19
290.832	102.19
291.3	106.19
291.767	108.19
292.234	108.19
292.702	130.19
293.169	100.19
293.637	122.19
294.104	124.19
294.571	120.19
295.039	112.19
295.506	123.19
295.973	102.19
296.44	100.19
296.908	140.19
297.375	128.19
297.842	122.19
298.309	122.19
298.776	122.19
299.243	130.19
299.71	122.19
300.177	134.19
300.644	123.19
301.111	120.19
301.578	124.19
302.045	132.19
302.512	137.19
302.979	120.19
303.446	131.19
303.913	120.19
304.379	113.19
304.846	132.19
305.313	127.19
305.78	141.19
306.246	114.19
306.713	121.19
307.18	127.19
307.646	117.19
308.113	129.19
308.579	135.19
309.046	135.19
309.512	132.19
309.979	130.19
310.445	132.19
310.912	140.19
311.378	132.19
311.845	143.19
312.311	124.19
312.777	133.19
313.244	136.19
313.71	142.19
314.176	137.19
314.642	138.19
315.109	152.19
315.575	135.19
316.041	140.19
316.507	141.19
316.973	135.19
317.439	138.19
317.905	150.19
318.371	150.19
318.837	139.19
319.303	162.19
319.769	156.19
320.235	152.19
320.701	133.19
321.167	139.19
321.633	163.19
322.099	161.19
322.564	159.19
323.03	142.19
323.496	165.19
323.962	163.19
324.427	139.19
324.893	164.19
325.359	148.19
325.824	153.19
326.29	144.19
326.755	153.19
327.221	166.19
327.686	145.19
328.152	166.19
328.617	156.19
329.083	158.19
329.548	148.19
330.014	160.19
330.479	174.19
330.944	176.19
331.41	163.19
331.875	153.19
332.34	154.19
332.805	163.19
333.271	169.19
333.736	176.19
334.201	176.19
334.666	168.19
335.131	168.19
335.596	154.19
336.061	180.19
336.526	167.19
336.991	184.19
337.456	177.19
337.921	168.19
338.386	156.19
338.851	170.19
339.316	162.19
339.781	175.19
340.246	180.19
340.711	163.19
341.175	154.19
341.64	169.19
342.105	188.19
342.569	188.19
343.034	197.19
343.499	174.19
343.963	194.19
344.428	195.19
344.893	178.19
345.357	193.19
345.822	158.19
346.286	196.19
346.751	184.19
347.215	182.19
347.679	193.19
348.144	204.19
348.608	217.19
349.073	211.19
349.537	215.19
350.001	220.19
350.465	210.19
350.93	208.19
351.394	203.19
351.858	210.19
352.322	237.19
352.786	215.19
353.25	228.19
353.715	249.19
354.179	235.19
354.643	216.19
355.107	236.19
355.571	242.19
356.035	220.19
356.498	228.19
356.962	245.19
357.426	228.19
357.89	230.19
358.354	218.19
358.818	242.19
359.281	219.19
359.745	219.19
360.209	239.19
360.673	232.19
361.136	230.19
361.6	218.19
362.064	209.19
362.527	223.19
362.991	227.19
363.454	218.19
363.918	224.19
364.381	247.19
364.845	218.19
365.308	220.19
365.772	230.19
366.235	245.19
366.698	237.19
367.162	242.19
367.625	233.19
368.088	253.19
368.552	262.19
369.015	232.19
369.478	248.19
369.941	234.19
370.404	254.19
370.867	253.19
371.331	249.19
371.794	254.19
372.257	262.19
372.72	276.19
373.183	258.19
373.646	260.19
374.109	271.19
374.572	278.19
375.035	267.19
375.497	253.19
375.96	267.19
376.423	264.19
376.886	283.19
377.349	276.19
377.811	252.19
378.274	268.19
378.737	259.19
379.199	287.19
379.662	287.19
380.125	284.19
380.587	300.19
381.05	299.19
381.512	296.19
381.975	304.19
382.437	288.19
382.9	295.19
383.362	291.19
383.825	289.19
384.287	308.19
384.75	298.19
385.212	320.19
385.674	305.19
386.136	301.19
386.599	323.19
387.061	315.19
387.523	335.19
387.985	305.19
388.447	318.19
388.91	306.19
389.372	327.19
389.834	307.19
390.296	320.19
390.758	319.19
391.22	316.19
391.682	306.19
392.144	325.19
392.606	310.19
393.068	338.19
393.529	327.19
393.991	320.19
394.453	330.19
394.915	345.19
395.377	327.19
395.838	327.19
396.3	340.19
396.762	331.19
397.224	330.19
397.685	329.19
398.147	329.19
398.608	337.19
399.07	340.19
399.531	336.19
399.993	332.19
400.454	354.19
400.916	328.19
401.377	342.19
401.839	366.19
402.3	365.19
402.762	328.19
403.223	415.19
403.684	396.19
404.145	360.19
404.607	385.19
405.068	377.19
405.529	355.19
405.99	367.19
406.451	386.19
406.913	372.19
407.374	357.19
407.835	389.19
408.296	363.19
408.757	395.19
409.218	408.19
409.679	405.19
410.14	374.19
410.601	402.19
411.062	402.19
411.522	407.19
411.983	410.19
412.444	399.19
412.905	434.19
413.366	447.19
413.826	457.19
414.287	479.19
414.748	568.19
415.208	586.19
415.669	514.19
416.13	464.19
416.59	439.19
417.051	466.19
417.511	452.19
417.972	505.19
418.432	546.19
418.893	585.19
419.353	588.19
419.814	464.19
420.274	425.19
420.734	425.19
421.195	437.19
421.655	446.19
422.115	421.19
422.576	454.19
423.036	436.19
423.496	457.19
423.956	460.19
424.416	470.19
424.876	517.19
425.336	547.19
425.797	529.19
426.257	530.19
426.717	520.19
427.177	468.19
427.637	504.19
428.097	506.19
428.556	516.19
429.016	556.19
429.476	555.19
429.936	542.19
430.396	557.19
430.856	557.19
431.315	545.19
431.775	590.19
432.235	618.19
432.694	649.19
433.154	608.19
433.614	602.19
434.073	578.19
434.533	535.19
434.993	484.19
435.452	520.19
435.912	483.19
436.371	513.19
436.83	495.19
437.29	504.19
437.749	470.19
438.209	480.19
438.668	485.19
439.127	497.19
439.587	479.19
440.046	484.19
440.505	488.19
440.964	471.19
441.424	505.19
441.883	496.19
442.342	476.19
442.801	487.19
443.26	460.19
443.719	468.19
444.178	474.19
444.637	466.19
445.096	487.19
445.555	489.19
446.014	490.19
446.473	506.19
446.932	474.19
447.391	482.19
447.849	497.19
448.308	481.19
448.767	503.19
449.226	519.19
449.685	517.19
450.143	540.19
450.602	507.19
451.061	503.19
451.519	502.19
451.978	500.19
452.436	492.19
452.895	496.19
453.353	490.19
453.812	474.19
454.27	492.19
454.729	495.19
455.187	519.19
455.646	498.19
456.104	492.19
456.562	517.19
457.021	508.19
457.479	503.19
457.937	484.19
458.395	530.19
458.854	517.19
459.312	488.19
459.77	525.19
460.228	514.19
460.686	531.19
461.144	517.19
461.602	482.19
462.06	525.19
462.518	550.19
462.976	530.19
463.434	542.19
463.892	556.19
464.35	535.19
464.808	533.19
465.266	537.19
465.724	562.19
466.181	561.19
466.639	587.19
467.097	581.19
467.555	607.19
468.012	597.19
468.47	650.19
468.928	618.19
469.385	634.19
469.843	660.19
470.3	610.19
470.758	651.19
471.215	647.19
471.673	676.19
472.13	692.19
472.588	705.19
473.045	701.19
473.503	702.19
473.96	762.19
474.417	747.19
474.875	774.19
475.332	808.19
475.789	788.19
476.246	832.19
476.704	864.19
477.161	864.19
477.618	878.19
478.075	938.19
478.532	1012.19
478.989	1050.19
479.446	1186.19
479.903	1231.19
480.36	1337.19
480.817	1387.19
481.274	1488.19
481.731	1580.19
482.188	1794.19
482.645	1870.19
483.102	1951.19
483.558	2110.19
484.015	2145.19
484.472	2177.19
484.929	2063.19
485.385	2043.19
485.842	2022.19
486.299	1880.19
486.755	1803.19
487.212	1650.19
487.668	1472.19
488.125	1386.19
488.582	1284.19
489.038	1249.19
489.494	1215.19
489.951	1172.19
490.407	1112.19
490.864	1118.19
491.32	1110.19
491.776	1088.19
492.233	1095.19
492.689	1064.19
493.145	1069.19
493.602	1048.19
494.058	1046.19
494.514	1058.19
494.97	1083.19
495.426	1048.19
495.882	1060.19
496.338	1058.19
496.794	1083.19
497.251	1062.19
497.707	1057.19
498.163	1085.19
498.618	1101.19
499.074	1083.19
499.53	1109.19
499.986	1078.19
500.442	1115.19
500.898	1094.19
501.354	1080.19
501.809	1076.19
502.265	1102.19
502.721	1101.19
503.177	1098.19
503.632	1121.19
504.088	1132.19
504.543	1122.19
504.999	1145.19
505.455	1154.19
505.91	1122.19
506.366	1150.19
506.821	1117.19
507.277	1094.19
507.732	1132.19
508.187	1144.19
508.643	1140.19
509.098	1146.19
509.553	1116.19
510.009	1115.19
510.464	1156.19
510.919	1180.19
511.375	1188.19
511.83	1211.19
512.285	1236.19
512.74	1232.19
513.195	1271.19
513.65	1252.19
514.105	1280.19
514.56	1320.19
515.015	1339.19
515.47	1309.19
515.925	1306.19
516.38	1324.19
516.835	1315.19
517.29	1317.19
517.745	1327.19
518.2	1321.19
518.655	1260.19
519.109	1238.19
519.564	1276.19
520.019	1275.19
520.474	1244.19
520.928	1232.19
521.383	1207.19
521.838	1214.19
522.292	1234.19
522.747	1195.19
523.201	1187.19
523.656	1192.19
524.11	1169.19
524.565	1183.19
525.019	1175.19
525.474	1177.19
525.928	1165.19
526.382	1158.19
526.837	1188.19
527.291	1208.19
527.745	1177.19
528.2	1193.19
528.654	1150.19
529.108	1162.19
529.562	1191.19
530.016	1144.19
530.47	1158.19
530.925	1146.19
531.379	1139.19
531.833	1216.19
532.287	1146.19
532.741	1172.19
533.195	1208.19
533.649	1190.19
534.103	1200.19
534.556	1190.19
535.01	1182.19
535.464	1145.19
535.918	1157.19
536.372	1177.19
536.826	1202.19
537.279	1152.19
537.733	1175.19
538.187	1170.19
538.64	1159.19
539.094	1138.19
539.548	1168.19
540.001	1202.19
540.455	1197.19
540.908	1213.19
541.362	1240.19
541.815	1236.19
542.269	1274.19
542.722	1274.19
543.175	1235.19
543.629	1244.19
544.082	1245.19
544.536	1297.19
544.989	1264.19
545.442	1276.19
545.895	1274.19
546.349	1305.19
546.802	1310.19
547.255	1292.19
547.708	1294.19
548.161	1315.19
548.614	1308.19
549.067	1356.19
549.52	1300.19
549.973	1310.19
550.426	1309.19
550.879	1312.19
551.332	1313.19
551.785	1303.19
552.238	1307.19
552.691	1275.19
553.144	1360.19
553.596	1362.19
554.049	1332.19
554.502	1409.19
554.955	1428.19
555.407	1463.19
555.86	1432.19
556.313	1394.19
556.765	1379.19
557.218	1403.19
557.67	1378.19
558.123	1343.19
558.576	1356.19
559.028	1350.19
559.48	1386.19
559.933	1378.19
560.385	1352.19
560.838	1317.19
561.29	1260.19
561.742	1273.19
562.195	1209.19
562.647	1263.19
563.099	1204.19
563.551	1202.19
564.004	1229.19
564.456	1187.19
564.908	1214.19
565.36	1172.19
565.812	1164.19
566.264	1148.19
566.716	1104.19
567.168	1097.19
567.62	1110.19
568.072	1132.19
568.524	1099.19
568.976	1085.19
569.428	1096.19
569.88	1099.19
570.332	1098.19
570.784	1108.19
571.235	1084.19
571.687	1061.19
572.139	1122.19
572.59	1116.19
573.042	1082.19
573.494	1130.19
573.945	1105.19
574.397	1105.19
574.849	1070.19
575.3	1075.19
575.752	1050.19
576.203	1050.19
576.655	1063.19
577.106	1046.19
577.557	1027.19
578.009	1037.19
578.46	1024.19
578.912	1033.19
579.363	1031.19
579.814	996.19
580.265	1028.19
580.717	1036.19
581.168	1034.19
581.619	1045.19
582.07	1036.19
582.521	1064.19
582.972	1012.19
583.423	1032.19
583.875	1029.19
584.326	1065.19
584.777	1078.19
585.227	1103.19
585.678	1096.19
586.129	1112.19
586.58	1124.19
587.031	1122.19
587.482	1134.19
587.933	1122.19
588.384	1162.19
588.834	1150.19
589.285	1109.19
589.736	1140.19
590.186	1147.19
590.637	1163.19
591.088	1118.19
591.538	1110.19
591.989	1076.19
592.439	1060.19
592.89	1079.19
593.34	1036.19
593.791	1024.19
594.241	1049.19
594.692	1020.19
595.142	1047.19
595.593	1020.19
596.043	1070.19
596.493	1036.19
596.943	1055.19
597.394	1080.19
597.844	1088.19
598.294	1116.19
598.744	1120.19
599.195	1182.19
599.645	1245.19
600.095	1293.19
600.545	1344.19
600.995	1426.19
601.445	1474.19
601.895	1537.19
602.345	1560.19
602.795	1576.19
603.245	1549.19
603.695	1462.19
604.145	1414.19
604.594	1359.19
605.044	1260.19
605.494	1174.19
605.944	1138.19
606.393	1111.19
606.843	1077.19
607.293	1052.19
607.743	1027.19
608.192	1044.19
608.642	1075.19
609.091	1053.19
609.541	1090.19
609.99	1070.19
610.44	1043.19
610.889	1054.19
611.339	1070.19
611.788	1008.19
612.238	1031.19
612.687	992.19
613.136	1012.19
613.586	1041.19
614.035	1036.19
614.484	1044.19
614.933	1025.19
615.383	1028.19
615.832	1013.19
616.281	963.19
616.73	969.19
617.179	935.19
617.628	946.19
618.077	923.19
618.526	915.19
618.975	904.19
619.424	874.19
619.873	884.19
620.322	888.19
620.771	894.19
621.22	885.19
621.669	865.19
622.118	863.19
622.567	829.19
623.015	813.19
623.464	832.19
623.913	808.19
624.361	767.19
624.81	816.19
625.259	795.19
625.707	816.19
626.156	800.19
626.604	821.19
627.053	827.19
627.501	830.19
627.95	820.19
628.398	872.19
628.847	861.19
629.295	831.19
629.744	832.19
630.192	794.19
630.64	802.19
631.089	801.19
631.537	785.19
631.985	774.19
632.433	750.19
632.881	771.19
633.33	758.19
633.778	776.19
634.226	773.19
634.674	780.19
635.122	799.19
635.57	786.19
636.018	768.19
636.466	816.19
636.914	820.19
637.362	796.19
637.81	860.19
638.258	865.19
638.705	839.19
639.153	888.19
639.601	870.19
640.049	879.19
640.497	919.19
640.944	945.19
641.392	918.19
641.84	862.19
642.287	842.19
642.735	832.19
643.182	803.19
643.63	808.19
644.078	830.19
644.525	812.19
644.973	836.19
645.42	859.19
645.867	890.19
646.315	911.19
646.762	890.19
647.21	931.19
647.657	978.19
648.104	996.19
648.551	1015.19
648.999	1108.19
649.446	1185.19
649.893	1286.19
650.34	1484.19
650.787	1788.19
651.234	2178.19
651.682	2876.19
652.129	4004.19
652.576	5652.19
653.023	7894.19
653.47	9484.19
653.917	10642.19
654.363	11304.19
654.81	11915.19
655.257	12490.19
655.704	9553.19
656.151	5832.19
656.598	3733.19
657.044	2582.19
657.491	2046.19
657.938	1692.19
658.385	1452.19
658.831	1273.19
659.278	1132.19
659.724	1050.19
660.171	996.19
660.618	936.19
661.064	867.19
661.511	857.19
661.957	806.19
662.404	784.19
662.85	798.19
663.296	766.19
663.743	769.19
664.189	752.19
664.635	742.19
665.082	759.19
665.528	746.19
665.974	726.19
666.42	711.19
666.867	693.19
667.313	618.19
667.759	638.19
668.205	643.19
668.651	652.19
669.097	670.19
669.543	649.19
669.989	656.19
670.435	646.19
670.881	666.19
671.327	689.19
671.773	716.19
672.219	763.19
672.665	823.19
673.11	850.19
673.556	872.19
674.002	831.19
674.448	898.19
674.893	790.19
675.339	705.19
675.785	660.19
676.23	612.19
676.676	608.19
677.122	588.19
677.567	556.19
678.013	568.19
678.458	531.19
678.904	546.19
679.349	529.19
679.794	529.19
680.24	519.19
680.685	510.19
681.131	546.19
681.576	492.19
682.021	514.19
682.466	507.19
682.912	527.19
683.357	572.19
683.802	589.19
684.247	620.19
684.692	672.19
685.137	677.19
685.583	728.19
686.028	743.19
686.473	734.19
686.918	683.19
687.363	603.19
687.807	563.19
688.252	564.19
688.697	530.19
689.142	521.19
689.587	550.19
690.032	522.19
690.477	526.19
690.921	558.19
691.366	564.19
691.811	579.19
692.255	631.19
692.7	726.19
693.145	894.19
693.589	1344.19
694.034	1784.19
694.478	1964.19
694.923	1816.19
695.367	2212.19
695.812	2051.19
696.256	890.19
696.701	596.19
697.145	528.19
697.59	502.19
698.034	498.19
698.478	513.19
698.922	508.19
699.367	510.19
699.811	504.19
700.255	554.19
700.699	606.19
701.143	619.19
701.588	660.19
702.032	696.19
702.476	740.19
702.92	724.19
703.364	829.19
703.808	1231.19
704.252	1668.19
704.696	1815.19
705.14	1720.19
705.584	2178.19
706.027	1782.19
706.471	855.19
706.915	623.19
707.359	548.19
707.803	512.19
708.246	484.19
708.69	467.19
709.134	492.19
709.577	482.19
710.021	466.19
710.465	462.19
710.908	452.19
711.352	469.19
711.795	485.19
712.239	541.19
712.682	578.19
713.126	573.19
713.569	580.19
714.012	588.19
714.456	472.19
714.899	446.19
715.342	444.19
715.786	399.19
716.229	430.19
716.672	421.19
717.115	400.19
717.558	385.19
718.002	422.19
718.445	421.19
718.888	434.19
719.331	437.19
719.774	451.19
720.217	417.19
720.66	425.19
721.103	398.19
721.546	388.19
721.989	373.19
722.432	355.19
722.874	372.19
723.317	377.19
723.76	411.19
724.203	422.19
724.645	561.19
725.088	685.19
725.531	733.19
725.974	694.19
726.416	739.19
726.859	506.19
727.301	386.19
727.744	378.19
728.187	358.19
728.629	383.19
729.071	384.19
729.514	417.19
729.956	449.19
730.399	430.19
730.841	429.19
731.283	423.19
731.726	445.19
732.168	426.19
732.61	428.19
733.053	448.19
733.495	499.19
733.937	558.19
734.379	606.19
734.821	736.19
735.263	970.19
735.705	1631.19
736.148	2627.19
736.59	3035.19
737.032	2866.19
737.474	3076.19
737.916	1517.19
738.357	770.19
738.799	555.19
739.241	476.19
739.683	463.19
740.125	492.19
740.567	492.19
741.008	505.19
741.45	517.19
741.892	525.19
742.334	545.19
742.775	536.19
743.217	565.19
743.658	501.19
744.1	445.19
744.542	502.19
744.983	577.19
745.425	555.19
745.866	588.19
746.307	519.19
746.749	472.19
747.19	594.19
747.632	954.19
748.073	1785.19
748.514	2705.19
748.956	3374.19
749.397	4527.19
749.838	3698.19
750.279	3066.19
750.72	2292.19
751.162	1024.19
751.603	589.19
752.044	427.19
752.485	372.19
752.926	344.19
753.367	334.19
753.808	323.19
754.249	321.19
754.69	335.19
755.131	318.19
755.572	325.19
756.013	325.19
756.453	313.19
756.894	302.19
757.335	335.19
757.776	333.19
758.216	329.19
758.657	321.19
759.098	375.19
759.538	427.19
759.979	505.19
760.42	828.19
760.86	1743.19
761.301	4134.19
761.741	6052.19
762.182	6290.19
762.622	5824.19
763.063	2696.19
763.503	1110.19
763.943	588.19
764.384	440.19
764.824	374.19
765.264	354.19
765.705	338.19
766.145	332.19
766.585	342.19
767.025	310.19
767.465	290.19
767.906	334.19
768.346	317.19
768.786	350.19
769.226	382.19
769.666	658.19
770.106	1365.19
770.546	2423.19
770.986	2612.19
771.426	2569.19
771.866	1463.19
772.306	720.19
772.745	402.19
773.185	311.19
773.625	318.19
774.065	285.19
774.505	360.19
774.944	555.19
775.384	868.19
775.824	994.19
776.263	982.19
776.703	712.19
777.142	394.19
777.582	287.19
778.021	261.19
778.461	254.19
778.9	262.19
779.34	246.19
779.779	214.19
780.219	233.19
780.658	232.19
781.097	219.19
781.537	248.19
781.976	232.19
782.415	241.19
782.855	248.19
783.294	211.19
783.733	221.19
784.172	202.19
784.611	219.19
785.05	204.19
785.489	224.19
785.928	233.19
786.367	240.19
786.806	252.19
787.245	246.19
787.684	263.19
788.123	279.19
788.562	260.19
789.001	248.19
789.44	262.19
789.879	264.19
790.317	245.19
790.756	248.19
791.195	278.19
791.634	319.19
792.072	439.19
792.511	857.19
792.95	1862.19
793.388	2327.19
793.827	2042.19
794.265	1198.19
794.704	602.19
795.142	368.19
795.581	296.19
796.019	242.19
796.458	250.19
796.896	251.19
797.334	297.19
797.773	320.19
798.211	471.19
798.649	893.19
799.087	1442.19
799.526	2228.19
799.964	2507.19
800.402	2109.19
800.84	1282.19
801.278	612.19
801.716	343.19
802.154	285.19
802.592	284.19
803.03	298.19
803.468	286.19
803.906	274.19
804.344	287.19
804.782	272.19
805.22	280.19
805.658	268.19
806.096	284.19
806.533	304.19
806.971	350.19
807.409	435.19
807.847	698.19
808.284	1516.19
808.722	2972.19
809.16	4175.19
809.597	5852.19
810.035	7405.19
810.472	6301.19
810.91	3506.19
811.347	1704.19
811.785	804.19
812.222	480.19
812.66	369.19
813.097	304.19
813.535	264.19
813.972	275.19
814.409	232.19
814.846	217.19
815.284	209.19
815.721	236.19
816.158	241.19
816.595	278.19
817.032	325.19
817.47	344.19
817.907	304.19
818.344	263.19
818.781	239.19
819.218	241.19
819.655	337.19
820.092	444.19
820.529	458.19
820.966	381.19
821.403	302.19
821.839	246.19
822.276	262.19
822.713	300.19
823.15	273.19
823.587	281.19
824.023	358.19
824.46	694.19
824.897	1342.19
825.333	1418.19
825.77	863.19
826.206	516.19
826.643	332.19
827.08	222.19
827.516	204.19
827.953	196.19
828.389	177.19
828.825	193.19
829.262	188.19
829.698	181.19
830.135	167.19
830.571	154.19
831.007	146.19
831.443	174.19
831.88	170.19
832.316	176.19
832.752	168.19
833.188	173.19
833.624	179.19
834.06	171.19
834.497	162.19
834.933	176.19
835.369	178.19
835.805	172.19
836.241	175.19
836.677	194.19
837.112	210.19
837.548	256.19
837.984	295.19
838.42	482.19
838.856	1101.19
839.292	2272.19
839.727	2525.19
840.163	1720.19
840.599	1963.19
841.034	2852.19
841.47	2336.19
841.906	1315.19
842.341	728.19
842.777	455.19
843.212	408.19
843.648	364.19
844.083	259.19
844.519	197.19
844.954	182.19
845.39	176.19
845.825	161.19
846.261	174.19
846.696	170.19
847.131	132.19
847.566	157.19
848.002	160.19
848.437	147.19
848.872	151.19
849.307	169.19
849.742	213.19
850.177	434.19
850.613	897.19
851.048	993.19
851.483	566.19
851.918	378.19
852.353	212.19
852.788	162.19
853.223	144.19
853.657	165.19
854.092	150.19
854.527	135.19
854.962	144.19
855.397	151.19
855.832	151.19
856.266	138.19
856.701	151.19
857.136	138.19
857.57	134.19
858.005	168.19
858.44	176.19
858.874	149.19
859.309	134.19
859.743	150.19
860.178	155.19
860.612	144.19
861.047	166.19
861.481	184.19
861.915	185.19
862.35	180.19
862.784	154.19
863.218	123.19
863.653	145.19
864.087	126.19
864.521	160.19
864.955	197.19
865.39	289.19
865.824	292.19
866.258	302.19
866.692	452.19
867.126	412.19
867.56	308.19
867.994	222.19
868.428	189.19
868.862	175.19
869.296	166.19
869.73	191.19
870.164	182.19
870.598	182.19
871.031	143.19
871.465	155.19
871.899	132.19
872.333	111.19
872.766	106.19
873.2	138.19
873.634	141.19
874.067	112.19
874.501	121.19
874.935	128.19
875.368	121.19
875.802	107.19
876.235	111.19
876.669	112.19
877.102	124.19
877.535	87.19
877.969	102.19
878.402	115.19
878.836	104.19
879.269	118.19
879.702	128.19
880.135	121.19
880.569	108.19
881.002	97.19
881.435	111.19
881.868	110.19
882.301	107.19
882.734	94.19
883.167	112.19
883.601	125.19
884.034	100.19
884.467	104.19
884.899	94.19
885.332	122.19
885.765	127.19
886.198	100.19
886.631	104.19
887.064	89.19
887.497	94.19
887.929	106.19
888.362	116.19
888.795	121.19
889.228	100.19
889.66	97.19
890.093	99.19
890.526	94.19
890.958	112.19
891.391	106.19
891.823	83.19
892.256	127.19
892.688	113.19
893.121	114.19
893.553	109.19
893.985	95.19
894.418	111.19
894.85	106.19
895.282	107.19
895.715	107.19
896.147	124.19
896.579	109.19
897.011	98.19
897.444	110.19
897.876	99.19
898.308	100.19
898.74	90.19
899.172	107.19
899.604	117.19
900.036	90.19
900.468	102.19
900.9	116.19
901.332	98.19
901.764	101.19
902.196	113.19
902.628	109.19
903.06	120.19
903.491	138.19
903.923	118.19
904.355	132.19
904.787	119.19
905.218	132.19
905.65	105.19
906.082	111.19
906.513	116.19
906.945	121.19
907.376	103.19
907.808	121.19
908.239	119.19
908.671	108.19
909.102	107.19
909.534	130.19
909.965	159.19
910.397	248.19
910.828	557.19
911.259	597.19
911.691	394.19
912.122	288.19
912.553	204.19
912.984	138.19
913.415	122.19
913.847	109.19
914.278	98.19
914.709	92.19
915.14	101.19
915.571	104.19
916.002	104.19
916.433	93.19
916.864	110.19
917.295	110.19
917.726	102.19
918.157	100.19
918.587	104.19
919.018	103.19
919.449	106.19
919.88	124.19
920.311	132.19
920.741	167.19
921.172	306.19
921.603	230.19
922.033	213.19
922.464	170.19
922.895	133.19
923.325	97.19
923.756	104.19
924.186	109.19
924.617	108.19
925.047	139.19
925.478	140.19
925.908	116.19
926.338	122.19
926.769	105.19
927.199	100.19
927.629	116.19
928.06	98.19
928.49	104.19
928.92	102.19
929.35	91.19
929.78	91.19
930.21	105.19
930.641	97.19
931.071	94.19
931.501	98.19
931.931	108.19
932.361	79.19
932.791	91.19
933.221	77.19
933.651	96.19
934.08	108.19
934.51	109.19
934.94	101.19
935.37	93.19
935.8	92.19
936.229	91.19
936.659	90.19
937.089	88.19
937.519	123.19
937.948	130.19
938.378	118.19
938.807	98.19
939.237	109.19
939.666	102.19
940.096	101.19
940.525	75.19
940.955	90.19
941.384	89.19
941.814	93.19
942.243	97.19
942.672	94.19
943.102	78.19
943.531	99.19
943.96	78.19
944.39	96.19
944.819	90.19
945.248	76.19
945.677	93.19
946.106	87.19
946.535	107.19
946.964	84.19
947.393	86.19
947.822	80.19
948.251	89.19
948.68	91.19
949.109	89.19
949.538	75.19
949.967	90.19
950.396	64.19
950.825	74.19
951.254	76.19
951.682	86.19
952.111	95.19
952.54	94.19
952.969	90.19
953.397	86.19
953.826	74.19
954.254	65.19
954.683	73.19
955.112	88.19
955.54	76.19
955.969	87.19
956.397	77.19
956.826	94.19
957.254	84.19
957.682	78.19
958.111	87.19
958.539	102.19
958.967	74.19
959.396	94.19
959.824	84.19
960.252	81.19
960.68	86.19
961.109	89.19
961.537	86.19
961.965	79.19
962.393	74.19
962.821	86.19
963.249	86.19
963.677	102.19
964.105	102.19
964.533	140.19
964.961	122.19
965.389	112.19
965.817	98.19
966.245	113.19
966.672	104.19
967.1	94.19
967.528	86.19
967.956	90.19
968.383	93.19
968.811	70.19
969.239	80.19
969.666	71.19
970.094	81.19
970.522	89.19
970.949	66.19
971.377	91.19
971.804	88.19
972.232	96.19
972.659	86.19
973.087	74.19
973.514	94.19
973.941	82.19
974.369	99.19
974.796	85.19
975.223	98.19
975.651	92.19
976.078	86.19
976.505	78.19
976.932	93.19
977.359	99.19
977.786	93.19
978.214	96.19
978.641	94.19
979.068	87.19
979.495	98.19
979.922	100.19
980.349	75.19
980.776	63.19
981.202	75.19
981.629	92.19
982.056	82.19
982.483	76.19
982.91	93.19
983.337	61.19
983.763	83.19
984.19	89.19
984.617	88.19
985.043	69.19
985.47	74.19
985.897	97.19
986.323	96.19
986.75	88.19
987.176	64.19
987.603	64.19
988.029	88.19
988.456	85.19
988.882	77.19
989.308	74.19
989.735	85.19
990.161	89.19
990.587	75.19
991.014	90.19
991.44	61.19
991.866	92.19
992.292	73.19
992.719	81.19
993.145	66.19
993.571	82.19
993.997	94.19
994.423	70.19
994.849	84.19
995.275	81.19
995.701	86.19
996.127	93.19
996.553	74.19
996.979	87.19
997.405	88.19
997.83	70.19
998.256	84.19
998.682	84.19
999.108	79.19
999.534	84.19
999.959	81.19
1000.385	77.19
1000.811	99.19
1001.236	74.19
1001.662	92.19
1002.087	81.19
1002.513	75.19
1002.938	80.19
1003.364	80.19
1003.789	70.19
1004.215	69.19
1004.64	96.19
1005.066	93.19
1005.491	92.19
1005.916	85.19
1006.342	81.19
1006.767	93.19
1007.192	78.19
1007.617	88.19
1008.042	78.19
1008.468	98.19
1008.893	78.19
1009.318	82.19
1009.743	90.19
1010.168	85.19
1010.593	100.19
1011.018	91.19
1011.443	103.19
1011.868	78.19
1012.293	90.19
1012.718	63.19
1013.143	91.19
1013.567	94.19
1013.992	76.19
1014.417	80.19
1014.842	85.19
1015.267	96.19
1015.691	90.19
1016.116	83.19
1016.541	89.19
1016.965	82.19
1017.39	80.19
1017.814	92.19
1018.239	103.19
1018.663	84.19
1019.088	82.19
1019.512	74.19
1019.937	71.19
1020.361	79.19
1020.785	68.19
1021.21	86.19
1021.634	87.19
1022.058	80.19
1022.483	71.19
1022.907	74.19
1023.331	80.19
1023.755	96.19
1024.179	96.19
1024.604	84.19
1025.028	94.19
1025.452	81.19
1025.876	74.19
1026.3	87.19
1026.724	99.19
1027.148	94.19
1027.572	78.19
1027.996	87.19
1028.42	77.19
1028.843	88.19
1029.267	85.19
1029.691	71.19
1030.115	72.19
1030.539	80.19
1030.962	77.19
1031.386	65.19
1031.81	87.19
1032.233	83.19
1032.657	73.19
1033.08	96.19
1033.504	100.19
1033.927	88.19
1034.351	62.19
1034.774	78.19
1035.198	81.19
1035.621	77.19
1036.045	82.19
1036.468	87.19
1036.891	92.19
1037.315	84.19
1037.738	88.19
1038.161	74.19
1038.584	84.19
1039.008	61.19
1039.431	80.19
1039.854	82.19
1040.277	82.19
1040.7	69.19
1041.123	73.19
1041.546	94.19
1041.969	88.19
1042.392	84.19
1042.815	82.19
1043.238	77.19
1043.661	81.19
1044.084	90.19
1044.507	93.19
1044.93	86.19
1045.352	93.19
1045.775	88.19
1046.198	76.19
1046.621	81.19
1047.043	83.19
1047.466	86.19
1047.889	81.19
1048.311	98.19
1048.734	76.19
1049.156	93.19
1049.579	82.19
1050.001	80.19
1050.424	94.19
1050.846	78.19
1051.269	100.19
1051.691	82.19
1052.113	90.19
1052.536	69.19
1052.958	86.19
1053.38	83.19
1053.802	69.19
1054.225	80.19
1054.647	77.19
1055.069	92.19
1055.491	67.19
1055.913	76.19
1056.335	73.19
1056.757	81.19
1057.179	88.19
1057.601	99.19
1058.023	85.19
1058.445	66.19
1058.867	91.19
1059.289	81.19
1059.711	73.19
1060.133	73.19
1060.555	85.19
1060.976	72.19
1061.398	79.19
1061.82	86.19
1062.241	72.19
1062.663	76.19
1063.085	80.19
1063.506	74.19
1063.928	81.19
1064.35	64.19
1064.771	78.19
1065.193	75.19
1065.614	90.19
1066.035	74.19
1066.457	67.19
1066.878	77.19
1067.3	77.19
1067.721	92.19
1068.142	66.19
1068.564	94.19
1068.985	89.19
1069.406	76.19
1069.827	93.19
1070.248	73.19
1070.67	81.19
1071.091	90.19
1071.512	86.19
1071.933	72.19
1072.354	86.19
1072.775	89.19
1073.196	94.19
1073.617	83.19
1074.038	71.19
1074.459	75.19
1074.88	78.19
1075.3	82.19
1075.721	74.19
1076.142	82.19
1076.563	76.19
1076.983	64.19
1077.404	71.19
1077.825	75.19
1078.246	94.19
1078.666	76.19
1079.087	82.19
1079.507	82.19
1079.928	82.19
1080.348	62.19
1080.769	83.19
1081.189	71.19
1081.61	86.19
1082.03	76.19
1082.451	64.19
1082.871	76.19
1083.291	91.19
1083.711	76.19
1084.132	88.19
1084.552	70.19
1084.972	76.19
1085.392	72.19
1085.813	88.19
1086.233	90.19
1086.653	78.19
1087.073	74.19
1087.493	79.19
1087.913	77.19
1088.333	85.19
1088.753	91.19
1089.173	71.19
1089.593	59.19
1090.013	73.19
1090.433	61.19
1090.852	75.19
1091.272	75.19
1091.692	96.19
1092.112	76.19
1092.531	68.19
1092.951	74.19
1093.371	81.19
1093.79	73.19
1094.21	72.19
1094.63	71.19
1095.049	93.19
1095.469	71.19
1095.888	86.19
1096.308	81.19
1096.727	84.19
1097.146	76.19
1097.566	82.19
1097.985	75.19
1098.405	89.19
1098.824	71.19
1099.243	90.19
1099.662	88.19
1100.082	88.19
1100.501	65.19
1100.92	70.19
1101.339	74.19
1101.758	74.19
