Data from 20170802-ORNL-NYSim-Air_HRD10391_10-36-53-623.txt Node
Date: Wed Aug 02 10:36:53 EDT 2017
User: Ender
Spectrometer: HR+D1039
Trigger mode: 0
Integration Time (sec): 1.510000E-3
Scans to average: 1
Electric dark correction enabled: true
Nonlinearity correction enabled: false
Boxcar width: 0
XAxis mode: Wavelengths
Number of Pixels in Spectrum: 2048
>>>>>Begin Spectral Data<<<<<
187.836	6.19
188.309	6.19
188.782	6.19
189.255	-7.81
189.728	-4.81
190.201	-5.81
190.674	-8.81
191.147	-9.81
191.619	-7.81
192.092	-6.81
192.565	-12.81
193.038	15.19
193.511	3.19
193.984	-4.81
194.456	3.19
194.929	8.19
195.402	12.19
195.874	21.19
196.347	23.19
196.82	14.19
197.292	26.19
197.765	22.19
198.237	31.19
198.71	31.19
199.182	35.19
199.655	48.19
200.127	36.19
200.6	58.19
201.072	59.19
201.544	54.19
202.017	57.19
202.489	67.19
202.961	64.19
203.433	69.19
203.906	74.19
204.378	83.19
204.85	71.19
205.322	82.19
205.794	69.19
206.266	81.19
206.739	78.19
207.211	91.19
207.683	83.19
208.155	70.19
208.627	74.19
209.099	82.19
209.57	82.19
210.042	81.19
210.514	87.19
210.986	67.19
211.458	96.19
211.93	92.19
212.402	75.19
212.873	85.19
213.345	82.19
213.817	84.19
214.288	77.19
214.76	98.19
215.232	97.19
215.703	89.19
216.175	88.19
216.646	74.19
217.118	99.19
217.589	73.19
218.061	80.19
218.532	65.19
219.004	85.19
219.475	81.19
219.946	82.19
220.418	89.19
220.889	101.19
221.36	81.19
221.832	79.19
222.303	78.19
222.774	82.19
223.245	90.19
223.717	71.19
224.188	73.19
224.659	73.19
225.13	86.19
225.601	85.19
226.072	75.19
226.543	103.19
227.014	75.19
227.485	71.19
227.956	79.19
228.427	78.19
228.898	91.19
229.369	68.19
229.839	82.19
230.31	67.19
230.781	90.19
231.252	81.19
231.722	72.19
232.193	78.19
232.664	94.19
233.135	90.19
233.605	69.19
234.076	81.19
234.546	89.19
235.017	104.19
235.487	81.19
235.958	91.19
236.428	75.19
236.899	86.19
237.369	81.19
237.84	101.19
238.31	94.19
238.78	81.19
239.251	100.19
239.721	92.19
240.191	68.19
240.662	77.19
241.132	82.19
241.602	88.19
242.072	77.19
242.542	97.19
243.013	84.19
243.483	77.19
243.953	91.19
244.423	81.19
244.893	109.19
245.363	105.19
245.833	93.19
246.303	74.19
246.773	91.19
247.243	102.19
247.712	71.19
248.182	80.19
248.652	89.19
249.122	76.19
249.592	93.19
250.061	77.19
250.531	83.19
251.001	96.19
251.471	94.19
251.94	114.19
252.41	101.19
252.879	93.19
253.349	108.19
253.818	92.19
254.288	99.19
254.757	93.19
255.227	87.19
255.696	99.19
256.166	95.19
256.635	97.19
257.105	82.19
257.574	103.19
258.043	102.19
258.513	92.19
258.982	104.19
259.451	90.19
259.92	95.19
260.389	81.19
260.859	92.19
261.328	89.19
261.797	103.19
262.266	116.19
262.735	104.19
263.204	106.19
263.673	98.19
264.142	105.19
264.611	94.19
265.08	105.19
265.549	98.19
266.018	105.19
266.487	110.19
266.955	105.19
267.424	100.19
267.893	100.19
268.362	109.19
268.83	88.19
269.299	116.19
269.768	111.19
270.236	83.19
270.705	97.19
271.174	89.19
271.642	96.19
272.111	115.19
272.579	110.19
273.048	115.19
273.516	90.19
273.985	98.19
274.453	113.19
274.922	107.19
275.39	106.19
275.858	121.19
276.327	112.19
276.795	100.19
277.263	91.19
277.731	103.19
278.2	99.19
278.668	105.19
279.136	111.19
279.604	104.19
280.072	109.19
280.54	120.19
281.008	116.19
281.477	109.19
281.945	121.19
282.413	130.19
282.881	109.19
283.348	116.19
283.816	109.19
284.284	111.19
284.752	122.19
285.22	113.19
285.688	121.19
286.156	111.19
286.623	111.19
287.091	126.19
287.559	101.19
288.026	117.19
288.494	123.19
288.962	126.19
289.429	105.19
289.897	117.19
290.364	116.19
290.832	121.19
291.3	128.19
291.767	116.19
292.234	110.19
292.702	112.19
293.169	118.19
293.637	120.19
294.104	114.19
294.571	120.19
295.039	111.19
295.506	105.19
295.973	127.19
296.44	125.19
296.908	107.19
297.375	122.19
297.842	120.19
298.309	120.19
298.776	146.19
299.243	128.19
299.71	117.19
300.177	126.19
300.644	132.19
301.111	113.19
301.578	115.19
302.045	140.19
302.512	124.19
302.979	142.19
303.446	138.19
303.913	119.19
304.379	123.19
304.846	127.19
305.313	146.19
305.78	140.19
306.246	123.19
306.713	126.19
307.18	135.19
307.646	135.19
308.113	145.19
308.579	152.19
309.046	142.19
309.512	148.19
309.979	134.19
310.445	161.19
310.912	144.19
311.378	151.19
311.845	143.19
312.311	148.19
312.777	150.19
313.244	142.19
313.71	153.19
314.176	147.19
314.642	153.19
315.109	156.19
315.575	140.19
316.041	149.19
316.507	145.19
316.973	147.19
317.439	153.19
317.905	143.19
318.371	163.19
318.837	171.19
319.303	170.19
319.769	165.19
320.235	165.19
320.701	131.19
321.167	147.19
321.633	147.19
322.099	166.19
322.564	157.19
323.03	163.19
323.496	174.19
323.962	169.19
324.427	165.19
324.893	160.19
325.359	186.19
325.824	165.19
326.29	168.19
326.755	183.19
327.221	173.19
327.686	169.19
328.152	162.19
328.617	175.19
329.083	175.19
329.548	168.19
330.014	176.19
330.479	164.19
330.944	182.19
331.41	161.19
331.875	181.19
332.34	149.19
332.805	165.19
333.271	177.19
333.736	159.19
334.201	156.19
334.666	177.19
335.131	187.19
335.596	179.19
336.061	183.19
336.526	179.19
336.991	201.19
337.456	201.19
337.921	182.19
338.386	178.19
338.851	186.19
339.316	181.19
339.781	167.19
340.246	180.19
340.711	189.19
341.175	178.19
341.64	205.19
342.105	179.19
342.569	202.19
343.034	195.19
343.499	207.19
343.963	181.19
344.428	199.19
344.893	194.19
345.357	197.19
345.822	214.19
346.286	204.19
346.751	219.19
347.215	207.19
347.679	196.19
348.144	199.19
348.608	218.19
349.073	226.19
349.537	216.19
350.001	222.19
350.465	220.19
350.93	209.19
351.394	221.19
351.858	233.19
352.322	225.19
352.786	224.19
353.25	234.19
353.715	218.19
354.179	238.19
354.643	240.19
355.107	253.19
355.571	237.19
356.035	241.19
356.498	224.19
356.962	234.19
357.426	242.19
357.89	251.19
358.354	207.19
358.818	243.19
359.281	241.19
359.745	249.19
360.209	225.19
360.673	243.19
361.136	239.19
361.6	245.19
362.064	258.19
362.527	253.19
362.991	245.19
363.454	258.19
363.918	233.19
364.381	245.19
364.845	259.19
365.308	241.19
365.772	279.19
366.235	259.19
366.698	237.19
367.162	274.19
367.625	249.19
368.088	262.19
368.552	249.19
369.015	248.19
369.478	267.19
369.941	261.19
370.404	267.19
370.867	260.19
371.331	263.19
371.794	268.19
372.257	269.19
372.72	259.19
373.183	251.19
373.646	261.19
374.109	273.19
374.572	283.19
375.035	284.19
375.497	290.19
375.96	264.19
376.423	263.19
376.886	270.19
377.349	283.19
377.811	293.19
378.274	289.19
378.737	277.19
379.199	268.19
379.662	312.19
380.125	285.19
380.587	314.19
381.05	323.19
381.512	303.19
381.975	317.19
382.437	320.19
382.9	325.19
383.362	317.19
383.825	321.19
384.287	307.19
384.75	317.19
385.212	316.19
385.674	319.19
386.136	332.19
386.599	309.19
387.061	311.19
387.523	326.19
387.985	329.19
388.447	323.19
388.91	297.19
389.372	310.19
389.834	303.19
390.296	337.19
390.758	329.19
391.22	312.19
391.682	345.19
392.144	334.19
392.606	331.19
393.068	337.19
393.529	354.19
393.991	366.19
394.453	343.19
394.915	360.19
395.377	348.19
395.838	332.19
396.3	328.19
396.762	366.19
397.224	351.19
397.685	330.19
398.147	348.19
398.608	381.19
399.07	357.19
399.531	322.19
399.993	352.19
400.454	387.19
400.916	353.19
401.377	361.19
401.839	376.19
402.3	387.19
402.762	383.19
403.223	402.19
403.684	408.19
404.145	401.19
404.607	362.19
405.068	389.19
405.529	368.19
405.99	388.19
406.451	393.19
406.913	394.19
407.374	415.19
407.835	415.19
408.296	403.19
408.757	395.19
409.218	401.19
409.679	428.19
410.14	389.19
410.601	397.19
411.062	410.19
411.522	427.19
411.983	448.19
412.444	448.19
412.905	446.19
413.366	492.19
413.826	486.19
414.287	516.19
414.748	597.19
415.208	579.19
415.669	518.19
416.13	474.19
416.59	493.19
417.051	471.19
417.511	497.19
417.972	543.19
418.432	565.19
418.893	617.19
419.353	618.19
419.814	492.19
420.274	430.19
420.734	441.19
421.195	472.19
421.655	442.19
422.115	460.19
422.576	430.19
423.036	461.19
423.496	487.19
423.956	498.19
424.416	537.19
424.876	564.19
425.336	580.19
425.797	569.19
426.257	576.19
426.717	543.19
427.177	523.19
427.637	491.19
428.097	530.19
428.556	547.19
429.016	591.19
429.476	578.19
429.936	581.19
430.396	583.19
430.856	575.19
431.315	608.19
431.775	632.19
432.235	672.19
432.694	669.19
433.154	631.19
433.614	627.19
434.073	610.19
434.533	582.19
434.993	565.19
435.452	533.19
435.912	536.19
436.371	530.19
436.83	525.19
437.29	531.19
437.749	527.19
438.209	485.19
438.668	523.19
439.127	511.19
439.587	528.19
440.046	508.19
440.505	500.19
440.964	529.19
441.424	521.19
441.883	508.19
442.342	506.19
442.801	490.19
443.26	514.19
443.719	503.19
444.178	491.19
444.637	491.19
445.096	483.19
445.555	523.19
446.014	509.19
446.473	499.19
446.932	505.19
447.391	499.19
447.849	522.19
448.308	500.19
448.767	510.19
449.226	519.19
449.685	520.19
450.143	529.19
450.602	535.19
451.061	521.19
451.519	542.19
451.978	517.19
452.436	503.19
452.895	526.19
453.353	517.19
453.812	506.19
454.27	481.19
454.729	527.19
455.187	520.19
455.646	520.19
456.104	542.19
456.562	513.19
457.021	523.19
457.479	512.19
457.937	550.19
458.395	547.19
458.854	537.19
459.312	509.19
459.77	553.19
460.228	520.19
460.686	535.19
461.144	539.19
461.602	537.19
462.06	529.19
462.518	548.19
462.976	544.19
463.434	561.19
463.892	520.19
464.35	557.19
464.808	602.19
465.266	607.19
465.724	581.19
466.181	626.19
466.639	584.19
467.097	593.19
467.555	639.19
468.012	624.19
468.47	638.19
468.928	644.19
469.385	635.19
469.843	659.19
470.3	677.19
470.758	679.19
471.215	688.19
471.673	725.19
472.13	708.19
472.588	743.19
473.045	727.19
473.503	737.19
473.96	784.19
474.417	788.19
474.875	810.19
475.332	869.19
475.789	847.19
476.246	883.19
476.704	905.19
477.161	919.19
477.618	963.19
478.075	1005.19
478.532	1109.19
478.989	1144.19
479.446	1266.19
479.903	1326.19
480.36	1417.19
480.817	1502.19
481.274	1590.19
481.731	1725.19
482.188	1887.19
482.645	1995.19
483.102	2096.19
483.558	2251.19
484.015	2389.19
484.472	2384.19
484.929	2303.19
485.385	2220.19
485.842	2171.19
486.299	2057.19
486.755	1925.19
487.212	1741.19
487.668	1611.19
488.125	1443.19
488.582	1351.19
489.038	1318.19
489.494	1290.19
489.951	1225.19
490.407	1217.19
490.864	1176.19
491.32	1153.19
491.776	1142.19
492.233	1167.19
492.689	1151.19
493.145	1072.19
493.602	1082.19
494.058	1106.19
494.514	1112.19
494.97	1129.19
495.426	1163.19
495.882	1122.19
496.338	1128.19
496.794	1140.19
497.251	1115.19
497.707	1134.19
498.163	1151.19
498.618	1131.19
499.074	1125.19
499.53	1157.19
499.986	1143.19
500.442	1136.19
500.898	1129.19
501.354	1155.19
501.809	1140.19
502.265	1126.19
502.721	1149.19
503.177	1142.19
503.632	1133.19
504.088	1168.19
504.543	1192.19
504.999	1178.19
505.455	1177.19
505.91	1151.19
506.366	1149.19
506.821	1163.19
507.277	1173.19
507.732	1164.19
508.187	1180.19
508.643	1175.19
509.098	1178.19
509.553	1194.19
510.009	1228.19
510.464	1218.19
510.919	1241.19
511.375	1268.19
511.83	1246.19
512.285	1312.19
512.74	1326.19
513.195	1321.19
513.65	1361.19
514.105	1361.19
514.56	1346.19
515.015	1358.19
515.47	1380.19
515.925	1393.19
516.38	1389.19
516.835	1392.19
517.29	1376.19
517.745	1369.19
518.2	1354.19
518.655	1310.19
519.109	1345.19
519.564	1332.19
520.019	1276.19
520.474	1273.19
520.928	1298.19
521.383	1271.19
521.838	1231.19
522.292	1275.19
522.747	1259.19
523.201	1226.19
523.656	1216.19
524.11	1224.19
524.565	1262.19
525.019	1198.19
525.474	1233.19
525.928	1229.19
526.382	1254.19
526.837	1241.19
527.291	1256.19
527.745	1216.19
528.2	1212.19
528.654	1231.19
529.108	1223.19
529.562	1241.19
530.016	1236.19
530.47	1206.19
530.925	1184.19
531.379	1217.19
531.833	1251.19
532.287	1228.19
532.741	1199.19
533.195	1227.19
533.649	1229.19
534.103	1271.19
534.556	1220.19
535.01	1230.19
535.464	1224.19
535.918	1212.19
536.372	1259.19
536.826	1237.19
537.279	1234.19
537.733	1251.19
538.187	1219.19
538.64	1244.19
539.094	1257.19
539.548	1230.19
540.001	1241.19
540.455	1237.19
540.908	1275.19
541.362	1261.19
541.815	1280.19
542.269	1330.19
542.722	1327.19
543.175	1302.19
543.629	1297.19
544.082	1347.19
544.536	1352.19
544.989	1337.19
545.442	1372.19
545.895	1338.19
546.349	1356.19
546.802	1333.19
547.255	1351.19
547.708	1410.19
548.161	1411.19
548.614	1373.19
549.067	1379.19
549.52	1378.19
549.973	1301.19
550.426	1349.19
550.879	1315.19
551.332	1321.19
551.785	1354.19
552.238	1372.19
552.691	1378.19
553.144	1416.19
553.596	1403.19
554.049	1403.19
554.502	1430.19
554.955	1503.19
555.407	1474.19
555.86	1505.19
556.313	1506.19
556.765	1473.19
557.218	1419.19
557.67	1454.19
558.123	1440.19
558.576	1423.19
559.028	1457.19
559.48	1440.19
559.933	1433.19
560.385	1393.19
560.838	1353.19
561.29	1329.19
561.742	1331.19
562.195	1270.19
562.647	1266.19
563.099	1287.19
563.551	1243.19
564.004	1247.19
564.456	1269.19
564.908	1268.19
565.36	1204.19
565.812	1184.19
566.264	1162.19
566.716	1182.19
567.168	1174.19
567.62	1162.19
568.072	1129.19
568.524	1135.19
568.976	1104.19
569.428	1156.19
569.88	1158.19
570.332	1117.19
570.784	1143.19
571.235	1107.19
571.687	1147.19
572.139	1147.19
572.59	1149.19
573.042	1165.19
573.494	1177.19
573.945	1140.19
574.397	1132.19
574.849	1097.19
575.3	1093.19
575.752	1095.19
576.203	1070.19
576.655	1106.19
577.106	1053.19
577.557	1075.19
578.009	1059.19
578.46	1090.19
578.912	1076.19
579.363	1078.19
579.814	1085.19
580.265	1049.19
580.717	1070.19
581.168	1073.19
581.619	1071.19
582.07	1111.19
582.521	1076.19
582.972	1109.19
583.423	1094.19
583.875	1061.19
584.326	1096.19
584.777	1145.19
585.227	1114.19
585.678	1117.19
586.129	1124.19
586.58	1172.19
587.031	1204.19
587.482	1217.19
587.933	1214.19
588.384	1193.19
588.834	1177.19
589.285	1171.19
589.736	1171.19
590.186	1182.19
590.637	1153.19
591.088	1183.19
591.538	1145.19
591.989	1126.19
592.439	1124.19
592.89	1065.19
593.34	1090.19
593.791	1082.19
594.241	1065.19
594.692	1050.19
595.142	1089.19
595.593	1087.19
596.043	1066.19
596.493	1119.19
596.943	1121.19
597.394	1124.19
597.844	1111.19
598.294	1161.19
598.744	1192.19
599.195	1229.19
599.645	1265.19
600.095	1358.19
600.545	1410.19
600.995	1487.19
601.445	1501.19
601.895	1545.19
602.345	1689.19
602.795	1622.19
603.245	1563.19
603.695	1507.19
604.145	1408.19
604.594	1417.19
605.044	1320.19
605.494	1261.19
605.944	1198.19
606.393	1154.19
606.843	1090.19
607.293	1094.19
607.743	1135.19
608.192	1124.19
608.642	1141.19
609.091	1095.19
609.541	1135.19
609.99	1102.19
610.44	1101.19
610.889	1097.19
611.339	1050.19
611.788	1061.19
612.238	1089.19
612.687	1072.19
613.136	1075.19
613.586	1044.19
614.035	1094.19
614.484	1074.19
614.933	1097.19
615.383	1055.19
615.832	1047.19
616.281	1062.19
616.73	1023.19
617.179	995.19
617.628	998.19
618.077	976.19
618.526	947.19
618.975	955.19
619.424	943.19
619.873	927.19
620.322	936.19
620.771	921.19
621.22	907.19
621.669	891.19
622.118	890.19
622.567	917.19
623.015	854.19
623.464	837.19
623.913	847.19
624.361	874.19
624.81	873.19
625.259	851.19
625.707	831.19
626.156	841.19
626.604	875.19
627.053	889.19
627.501	876.19
627.95	879.19
628.398	907.19
628.847	881.19
629.295	900.19
629.744	864.19
630.192	846.19
630.64	870.19
631.089	820.19
631.537	806.19
631.985	789.19
632.433	780.19
632.881	794.19
633.33	818.19
633.778	800.19
634.226	808.19
634.674	802.19
635.122	793.19
635.57	803.19
636.018	829.19
636.466	811.19
636.914	850.19
637.362	834.19
637.81	854.19
638.258	876.19
638.705	914.19
639.153	932.19
639.601	936.19
640.049	954.19
640.497	1000.19
640.944	1027.19
641.392	941.19
641.84	922.19
642.287	872.19
642.735	864.19
643.182	825.19
643.63	849.19
644.078	879.19
644.525	890.19
644.973	895.19
645.42	895.19
645.867	904.19
646.315	950.19
646.762	964.19
647.21	985.19
647.657	1037.19
648.104	1072.19
648.551	1112.19
648.999	1201.19
649.446	1289.19
649.893	1423.19
650.34	1594.19
650.787	1923.19
651.234	2374.19
651.682	3185.19
652.129	4411.19
652.576	6397.19
653.023	8638.19
653.47	10688.19
653.917	11796.19
654.363	12597.19
654.81	13206.19
655.257	13963.19
655.704	10635.19
656.151	6386.19
656.598	4118.19
657.044	2928.19
657.491	2243.19
657.938	1875.19
658.385	1586.19
658.831	1372.19
659.278	1248.19
659.724	1165.19
660.171	1046.19
660.618	945.19
661.064	890.19
661.511	862.19
661.957	834.19
662.404	865.19
662.85	855.19
663.296	846.19
663.743	781.19
664.189	791.19
664.635	810.19
665.082	762.19
665.528	747.19
665.974	729.19
666.42	722.19
666.867	739.19
667.313	699.19
667.759	697.19
668.205	670.19
668.651	697.19
669.097	711.19
669.543	697.19
669.989	668.19
670.435	665.19
670.881	699.19
671.327	725.19
671.773	747.19
672.219	788.19
672.665	878.19
673.11	917.19
673.556	872.19
674.002	896.19
674.448	953.19
674.893	825.19
675.339	739.19
675.785	681.19
676.23	644.19
676.676	634.19
677.122	617.19
677.567	577.19
678.013	580.19
678.458	566.19
678.904	569.19
679.349	545.19
679.794	560.19
680.24	541.19
680.685	537.19
681.131	553.19
681.576	545.19
682.021	540.19
682.466	541.19
682.912	576.19
683.357	588.19
683.802	609.19
684.247	653.19
684.692	726.19
685.137	735.19
685.583	746.19
686.028	737.19
686.473	764.19
686.918	694.19
687.363	614.19
687.807	569.19
688.252	556.19
688.697	524.19
689.142	505.19
689.587	535.19
690.032	551.19
690.477	546.19
690.921	555.19
691.366	588.19
691.811	635.19
692.255	628.19
692.7	740.19
693.145	909.19
693.589	1386.19
694.034	1794.19
694.478	1992.19
694.923	1847.19
695.367	2256.19
695.812	2118.19
696.256	894.19
696.701	611.19
697.145	543.19
697.59	539.19
698.034	529.19
698.478	489.19
698.922	516.19
699.367	514.19
699.811	529.19
700.255	530.19
700.699	624.19
701.143	668.19
701.588	679.19
702.032	740.19
702.476	732.19
702.92	811.19
703.364	864.19
703.808	1267.19
704.252	1721.19
704.696	1951.19
705.14	1822.19
705.584	2207.19
706.027	1886.19
706.471	912.19
706.915	615.19
707.359	567.19
707.803	511.19
708.246	508.19
708.69	489.19
709.134	496.19
709.577	473.19
710.021	477.19
710.465	472.19
710.908	507.19
711.352	457.19
711.795	527.19
712.239	583.19
712.682	592.19
713.126	605.19
713.569	632.19
714.012	580.19
714.456	511.19
714.899	474.19
715.342	454.19
715.786	442.19
716.229	419.19
716.672	427.19
717.115	423.19
717.558	414.19
718.002	427.19
718.445	464.19
718.888	466.19
719.331	459.19
719.774	453.19
720.217	490.19
720.66	446.19
721.103	440.19
721.546	421.19
721.989	424.19
722.432	409.19
722.874	425.19
723.317	423.19
723.76	389.19
724.203	446.19
724.645	583.19
725.088	693.19
725.531	740.19
725.974	734.19
726.416	847.19
726.859	551.19
727.301	438.19
727.744	419.19
728.187	400.19
728.629	410.19
729.071	421.19
729.514	428.19
729.956	439.19
730.399	450.19
730.841	450.19
731.283	450.19
731.726	439.19
732.168	444.19
732.61	466.19
733.053	471.19
733.495	529.19
733.937	547.19
734.379	626.19
734.821	733.19
735.263	992.19
735.705	1674.19
736.148	2747.19
736.59	3133.19
737.032	2946.19
737.474	3229.19
737.916	1636.19
738.357	798.19
738.799	541.19
739.241	504.19
739.683	510.19
740.125	489.19
740.567	501.19
741.008	510.19
741.45	573.19
741.892	542.19
742.334	625.19
742.775	571.19
743.217	569.19
743.658	522.19
744.1	482.19
744.542	515.19
744.983	599.19
745.425	578.19
745.866	601.19
746.307	522.19
746.749	517.19
747.19	617.19
747.632	994.19
748.073	1811.19
748.514	2819.19
748.956	3475.19
749.397	4756.19
749.838	3861.19
750.279	3115.19
750.72	2341.19
751.162	1084.19
751.603	585.19
752.044	443.19
752.485	388.19
752.926	394.19
753.367	360.19
753.808	346.19
754.249	338.19
754.69	344.19
755.131	349.19
755.572	332.19
756.013	337.19
756.453	327.19
756.894	323.19
757.335	347.19
757.776	350.19
758.216	349.19
758.657	369.19
759.098	367.19
759.538	415.19
759.979	539.19
760.42	819.19
760.86	1820.19
761.301	4205.19
761.741	6266.19
762.182	6466.19
762.622	6086.19
763.063	2776.19
763.503	1127.19
763.943	608.19
764.384	454.19
764.824	397.19
765.264	367.19
765.705	350.19
766.145	335.19
766.585	343.19
767.025	341.19
767.465	307.19
767.906	319.19
768.346	305.19
768.786	362.19
769.226	453.19
769.666	699.19
770.106	1409.19
770.546	2505.19
770.986	2714.19
771.426	2661.19
771.866	1513.19
772.306	701.19
772.745	411.19
773.185	351.19
773.625	330.19
774.065	325.19
774.505	368.19
774.944	581.19
775.384	864.19
775.824	1057.19
776.263	1026.19
776.703	717.19
777.142	409.19
777.582	308.19
778.021	246.19
778.461	251.19
778.9	259.19
779.34	252.19
779.779	249.19
780.219	242.19
780.658	241.19
781.097	265.19
781.537	240.19
781.976	235.19
782.415	235.19
782.855	239.19
783.294	251.19
783.733	229.19
784.172	198.19
784.611	214.19
785.05	226.19
785.489	243.19
785.928	233.19
786.367	248.19
786.806	254.19
787.245	257.19
787.684	266.19
788.123	265.19
788.562	270.19
789.001	288.19
789.44	242.19
789.879	291.19
790.317	269.19
790.756	272.19
791.195	298.19
791.634	311.19
792.072	448.19
792.511	892.19
792.95	1915.19
793.388	2335.19
793.827	2162.19
794.265	1257.19
794.704	645.19
795.142	374.19
795.581	295.19
796.019	281.19
796.458	261.19
796.896	243.19
797.334	299.19
797.773	317.19
798.211	473.19
798.649	940.19
799.087	1575.19
799.526	2298.19
799.964	2637.19
800.402	2136.19
800.84	1307.19
801.278	680.19
801.716	399.19
802.154	311.19
802.592	286.19
803.03	285.19
803.468	286.19
803.906	261.19
804.344	290.19
804.782	285.19
805.22	291.19
805.658	283.19
806.096	293.19
806.533	274.19
806.971	363.19
807.409	444.19
807.847	662.19
808.284	1538.19
808.722	3010.19
809.16	4219.19
809.597	5999.19
810.035	7591.19
810.472	6472.19
810.91	3615.19
811.347	1773.19
811.785	839.19
812.222	488.19
812.66	383.19
813.097	319.19
813.535	300.19
813.972	275.19
814.409	265.19
814.846	255.19
815.284	243.19
815.721	235.19
816.158	247.19
816.595	281.19
817.032	333.19
817.47	352.19
817.907	303.19
818.344	285.19
818.781	258.19
819.218	262.19
819.655	349.19
820.092	435.19
820.529	457.19
820.966	401.19
821.403	322.19
821.839	271.19
822.276	255.19
822.713	292.19
823.15	315.19
823.587	257.19
824.023	356.19
824.46	738.19
824.897	1370.19
825.333	1488.19
825.77	900.19
826.206	517.19
826.643	333.19
827.08	221.19
827.516	193.19
827.953	212.19
828.389	179.19
828.825	189.19
829.262	183.19
829.698	166.19
830.135	181.19
830.571	170.19
831.007	178.19
831.443	162.19
831.88	166.19
832.316	179.19
832.752	178.19
833.188	153.19
833.624	162.19
834.06	172.19
834.497	185.19
834.933	189.19
835.369	211.19
835.805	192.19
836.241	204.19
836.677	215.19
837.112	240.19
837.548	265.19
837.984	310.19
838.42	479.19
838.856	1142.19
839.292	2387.19
839.727	2617.19
840.163	1737.19
840.599	2006.19
841.034	2986.19
841.47	2412.19
841.906	1316.19
842.341	753.19
842.777	483.19
843.212	442.19
843.648	359.19
844.083	274.19
844.519	232.19
844.954	205.19
845.39	194.19
845.825	164.19
846.261	189.19
846.696	148.19
847.131	160.19
847.566	185.19
848.002	148.19
848.437	161.19
848.872	171.19
849.307	178.19
849.742	246.19
850.177	435.19
850.613	921.19
851.048	1014.19
851.483	579.19
851.918	391.19
852.353	237.19
852.788	171.19
853.223	163.19
853.657	169.19
854.092	148.19
854.527	148.19
854.962	149.19
855.397	164.19
855.832	157.19
856.266	126.19
856.701	152.19
857.136	152.19
857.57	155.19
858.005	173.19
858.44	179.19
858.874	171.19
859.309	150.19
859.743	147.19
860.178	145.19
860.612	170.19
861.047	182.19
861.481	199.19
861.915	221.19
862.35	177.19
862.784	157.19
863.218	137.19
863.653	125.19
864.087	148.19
864.521	153.19
864.955	201.19
865.39	285.19
865.824	290.19
866.258	314.19
866.692	456.19
867.126	442.19
867.56	320.19
867.994	237.19
868.428	174.19
868.862	170.19
869.296	166.19
869.73	185.19
870.164	189.19
870.598	184.19
871.031	151.19
871.465	139.19
871.899	138.19
872.333	127.19
872.766	133.19
873.2	118.19
873.634	119.19
874.067	128.19
874.501	120.19
874.935	135.19
875.368	129.19
875.802	129.19
876.235	110.19
876.669	140.19
877.102	125.19
877.535	106.19
877.969	112.19
878.402	127.19
878.836	133.19
879.269	123.19
879.702	94.19
880.135	125.19
880.569	104.19
881.002	130.19
881.435	109.19
881.868	118.19
882.301	132.19
882.734	125.19
883.167	115.19
883.601	100.19
884.034	114.19
884.467	108.19
884.899	126.19
885.332	101.19
885.765	120.19
886.198	115.19
886.631	117.19
887.064	107.19
887.497	100.19
887.929	108.19
888.362	107.19
888.795	118.19
889.228	113.19
889.66	112.19
890.093	121.19
890.526	119.19
890.958	125.19
891.391	98.19
891.823	107.19
892.256	111.19
892.688	107.19
893.121	102.19
893.553	98.19
893.985	118.19
894.418	92.19
894.85	106.19
895.282	111.19
895.715	105.19
896.147	103.19
896.579	120.19
897.011	97.19
897.444	94.19
897.876	106.19
898.308	99.19
898.74	99.19
899.172	112.19
899.604	114.19
900.036	113.19
900.468	111.19
900.9	125.19
901.332	108.19
901.764	141.19
902.196	104.19
902.628	91.19
903.06	127.19
903.491	147.19
903.923	136.19
904.355	129.19
904.787	156.19
905.218	112.19
905.65	125.19
906.082	116.19
906.513	104.19
906.945	107.19
907.376	110.19
907.808	124.19
908.239	113.19
908.671	104.19
909.102	125.19
909.534	140.19
909.965	172.19
910.397	240.19
910.828	618.19
911.259	637.19
911.691	429.19
912.122	287.19
912.553	190.19
912.984	131.19
913.415	127.19
913.847	111.19
914.278	108.19
914.709	130.19
915.14	117.19
915.571	107.19
916.002	109.19
916.433	97.19
916.864	106.19
917.295	102.19
917.726	108.19
918.157	105.19
918.587	106.19
919.018	119.19
919.449	121.19
919.88	123.19
920.311	135.19
920.741	176.19
921.172	331.19
921.603	276.19
922.033	216.19
922.464	165.19
922.895	136.19
923.325	115.19
923.756	91.19
924.186	110.19
924.617	117.19
925.047	138.19
925.478	138.19
925.908	140.19
926.338	135.19
926.769	126.19
927.199	99.19
927.629	102.19
928.06	109.19
928.49	102.19
928.92	117.19
929.35	110.19
929.78	112.19
930.21	103.19
930.641	98.19
931.071	84.19
931.501	93.19
931.931	100.19
932.361	101.19
932.791	99.19
933.221	98.19
933.651	110.19
934.08	104.19
934.51	112.19
934.94	99.19
935.37	112.19
935.8	106.19
936.229	107.19
936.659	107.19
937.089	102.19
937.519	119.19
937.948	137.19
938.378	112.19
938.807	108.19
939.237	110.19
939.666	92.19
940.096	81.19
940.525	99.19
940.955	83.19
941.384	84.19
941.814	86.19
942.243	95.19
942.672	91.19
943.102	90.19
943.531	116.19
943.96	103.19
944.39	103.19
944.819	88.19
945.248	88.19
945.677	78.19
946.106	97.19
946.535	105.19
946.964	92.19
947.393	90.19
947.822	84.19
948.251	105.19
948.68	101.19
949.109	88.19
949.538	95.19
949.967	99.19
950.396	74.19
950.825	85.19
951.254	97.19
951.682	96.19
952.111	107.19
952.54	90.19
952.969	81.19
953.397	87.19
953.826	98.19
954.254	103.19
954.683	105.19
955.112	89.19
955.54	86.19
955.969	87.19
956.397	102.19
956.826	90.19
957.254	101.19
957.682	105.19
958.111	81.19
958.539	91.19
958.967	87.19
959.396	79.19
959.824	85.19
960.252	84.19
960.68	97.19
961.109	94.19
961.537	87.19
961.965	104.19
962.393	97.19
962.821	100.19
963.249	86.19
963.677	95.19
964.105	126.19
964.533	129.19
964.961	125.19
965.389	135.19
965.817	97.19
966.245	107.19
966.672	79.19
967.1	101.19
967.528	95.19
967.956	101.19
968.383	79.19
968.811	86.19
969.239	79.19
969.666	79.19
970.094	97.19
970.522	87.19
970.949	99.19
971.377	84.19
971.804	87.19
972.232	102.19
972.659	91.19
973.087	86.19
973.514	86.19
973.941	102.19
974.369	87.19
974.796	90.19
975.223	79.19
975.651	103.19
976.078	91.19
976.505	75.19
976.932	92.19
977.359	107.19
977.786	104.19
978.214	101.19
978.641	95.19
979.068	100.19
979.495	93.19
979.922	56.19
980.349	82.19
980.776	94.19
981.202	71.19
981.629	84.19
982.056	84.19
982.483	91.19
982.91	100.19
983.337	87.19
983.763	98.19
984.19	87.19
984.617	86.19
985.043	86.19
985.47	94.19
985.897	87.19
986.323	100.19
986.75	123.19
987.176	81.19
987.603	93.19
988.029	73.19
988.456	85.19
988.882	87.19
989.308	94.19
989.735	99.19
990.161	82.19
990.587	96.19
991.014	76.19
991.44	82.19
991.866	81.19
992.292	97.19
992.719	77.19
993.145	81.19
993.571	91.19
993.997	99.19
994.423	95.19
994.849	82.19
995.275	77.19
995.701	80.19
996.127	100.19
996.553	74.19
996.979	94.19
997.405	82.19
997.83	80.19
998.256	82.19
998.682	91.19
999.108	85.19
999.534	80.19
999.959	89.19
1000.385	79.19
1000.811	89.19
1001.236	77.19
1001.662	78.19
1002.087	98.19
1002.513	80.19
1002.938	93.19
1003.364	92.19
1003.789	81.19
1004.215	86.19
1004.64	87.19
1005.066	71.19
1005.491	72.19
1005.916	96.19
1006.342	75.19
1006.767	82.19
1007.192	97.19
1007.617	79.19
1008.042	105.19
1008.468	74.19
1008.893	93.19
1009.318	82.19
1009.743	90.19
1010.168	94.19
1010.593	98.19
1011.018	82.19
1011.443	95.19
1011.868	87.19
1012.293	86.19
1012.718	93.19
1013.143	87.19
1013.567	77.19
1013.992	102.19
1014.417	79.19
1014.842	102.19
1015.267	79.19
1015.691	84.19
1016.116	83.19
1016.541	94.19
1016.965	74.19
1017.39	77.19
1017.814	87.19
1018.239	81.19
1018.663	92.19
1019.088	89.19
1019.512	71.19
1019.937	93.19
1020.361	83.19
1020.785	91.19
1021.21	82.19
1021.634	89.19
1022.058	81.19
1022.483	95.19
1022.907	74.19
1023.331	74.19
1023.755	92.19
1024.179	91.19
1024.604	83.19
1025.028	62.19
1025.452	93.19
1025.876	84.19
1026.3	84.19
1026.724	74.19
1027.148	97.19
1027.572	87.19
1027.996	80.19
1028.42	95.19
1028.843	81.19
1029.267	82.19
1029.691	93.19
1030.115	74.19
1030.539	68.19
1030.962	100.19
1031.386	100.19
1031.81	81.19
1032.233	79.19
1032.657	85.19
1033.08	87.19
1033.504	78.19
1033.927	68.19
1034.351	81.19
1034.774	76.19
1035.198	91.19
1035.621	83.19
1036.045	79.19
1036.468	78.19
1036.891	90.19
1037.315	91.19
1037.738	92.19
1038.161	84.19
1038.584	89.19
1039.008	84.19
1039.431	77.19
1039.854	97.19
1040.277	67.19
1040.7	94.19
1041.123	79.19
1041.546	76.19
1041.969	84.19
1042.392	80.19
1042.815	88.19
1043.238	91.19
1043.661	93.19
1044.084	92.19
1044.507	80.19
1044.93	70.19
1045.352	91.19
1045.775	85.19
1046.198	86.19
1046.621	97.19
1047.043	83.19
1047.466	71.19
1047.889	102.19
1048.311	92.19
1048.734	93.19
1049.156	98.19
1049.579	86.19
1050.001	88.19
1050.424	98.19
1050.846	94.19
1051.269	77.19
1051.691	87.19
1052.113	72.19
1052.536	90.19
1052.958	88.19
1053.38	88.19
1053.802	80.19
1054.225	86.19
1054.647	81.19
1055.069	91.19
1055.491	87.19
1055.913	81.19
1056.335	76.19
1056.757	78.19
1057.179	74.19
1057.601	79.19
1058.023	82.19
1058.445	81.19
1058.867	74.19
1059.289	88.19
1059.711	91.19
1060.133	88.19
1060.555	102.19
1060.976	95.19
1061.398	101.19
1061.82	77.19
1062.241	75.19
1062.663	70.19
1063.085	83.19
1063.506	76.19
1063.928	89.19
1064.35	87.19
1064.771	78.19
1065.193	86.19
1065.614	91.19
1066.035	96.19
1066.457	87.19
1066.878	81.19
1067.3	81.19
1067.721	73.19
1068.142	81.19
1068.564	70.19
1068.985	107.19
1069.406	93.19
1069.827	81.19
1070.248	86.19
1070.67	90.19
1071.091	94.19
1071.512	89.19
1071.933	102.19
1072.354	82.19
1072.775	87.19
1073.196	86.19
1073.617	96.19
1074.038	88.19
1074.459	77.19
1074.88	90.19
1075.3	90.19
1075.721	81.19
1076.142	91.19
1076.563	92.19
1076.983	76.19
1077.404	83.19
1077.825	72.19
1078.246	96.19
1078.666	93.19
1079.087	89.19
1079.507	98.19
1079.928	79.19
1080.348	102.19
1080.769	88.19
1081.189	54.19
1081.61	78.19
1082.03	89.19
1082.451	80.19
1082.871	80.19
1083.291	69.19
1083.711	87.19
1084.132	86.19
1084.552	84.19
1084.972	78.19
1085.392	70.19
1085.813	73.19
1086.233	85.19
1086.653	99.19
1087.073	79.19
1087.493	90.19
1087.913	87.19
1088.333	75.19
1088.753	94.19
1089.173	103.19
1089.593	82.19
1090.013	101.19
1090.433	98.19
1090.852	75.19
1091.272	109.19
1091.692	78.19
1092.112	86.19
1092.531	84.19
1092.951	82.19
1093.371	77.19
1093.79	97.19
1094.21	82.19
1094.63	85.19
1095.049	99.19
1095.469	87.19
1095.888	74.19
1096.308	84.19
1096.727	80.19
1097.146	97.19
1097.566	95.19
1097.985	95.19
1098.405	82.19
1098.824	90.19
1099.243	83.19
1099.662	80.19
1100.082	90.19
1100.501	72.19
1100.92	80.19
1101.339	73.19
1101.758	88.19
