Data from 20170802-ORNL-NYSim-Air_HRD10391_10-37-23-637.txt Node
Date: Wed Aug 02 10:37:23 EDT 2017
User: Ender
Spectrometer: HR+D1039
Trigger mode: 0
Integration Time (sec): 1.510000E-3
Scans to average: 1
Electric dark correction enabled: true
Nonlinearity correction enabled: false
Boxcar width: 0
XAxis mode: Wavelengths
Number of Pixels in Spectrum: 2048
>>>>>Begin Spectral Data<<<<<
187.836	-1.69
188.309	-1.69
188.782	-1.69
189.255	13.31
189.728	-8.69
190.201	-17.69
190.674	-11.69
191.147	-16.69
191.619	-3.69
192.092	-2.69
192.565	-2.69
193.038	-4.69
193.511	14.31
193.984	1.31
194.456	-1.69
194.929	14.31
195.402	19.31
195.874	9.31
196.347	17.31
196.82	13.31
197.292	23.31
197.765	4.31
198.237	57.31
198.71	39.31
199.182	54.31
199.655	54.31
200.127	49.31
200.6	52.31
201.072	55.31
201.544	55.31
202.017	70.31
202.489	68.31
202.961	73.31
203.433	66.31
203.906	79.31
204.378	76.31
204.85	86.31
205.322	71.31
205.794	62.31
206.266	75.31
206.739	78.31
207.211	67.31
207.683	90.31
208.155	92.31
208.627	82.31
209.099	83.31
209.57	64.31
210.042	76.31
210.514	92.31
210.986	81.31
211.458	85.31
211.93	79.31
212.402	92.31
212.873	84.31
213.345	86.31
213.817	86.31
214.288	75.31
214.76	85.31
215.232	90.31
215.703	97.31
216.175	81.31
216.646	74.31
217.118	71.31
217.589	75.31
218.061	85.31
218.532	71.31
219.004	62.31
219.475	86.31
219.946	84.31
220.418	81.31
220.889	79.31
221.36	76.31
221.832	72.31
222.303	71.31
222.774	88.31
223.245	86.31
223.717	76.31
224.188	86.31
224.659	79.31
225.13	106.31
225.601	84.31
226.072	69.31
226.543	82.31
227.014	89.31
227.485	64.31
227.956	73.31
228.427	70.31
228.898	69.31
229.369	81.31
229.839	67.31
230.31	84.31
230.781	87.31
231.252	79.31
231.722	72.31
232.193	81.31
232.664	77.31
233.135	93.31
233.605	76.31
234.076	77.31
234.546	65.31
235.017	98.31
235.487	81.31
235.958	71.31
236.428	84.31
236.899	93.31
237.369	74.31
237.84	73.31
238.31	90.31
238.78	101.31
239.251	89.31
239.721	90.31
240.191	80.31
240.662	72.31
241.132	89.31
241.602	72.31
242.072	78.31
242.542	72.31
243.013	86.31
243.483	78.31
243.953	83.31
244.423	91.31
244.893	93.31
245.363	86.31
245.833	83.31
246.303	70.31
246.773	85.31
247.243	82.31
247.712	99.31
248.182	90.31
248.652	81.31
249.122	83.31
249.592	94.31
250.061	100.31
250.531	100.31
251.001	77.31
251.471	74.31
251.94	82.31
252.41	80.31
252.879	84.31
253.349	107.31
253.818	102.31
254.288	100.31
254.757	86.31
255.227	97.31
255.696	85.31
256.166	76.31
256.635	103.31
257.105	90.31
257.574	97.31
258.043	84.31
258.513	81.31
258.982	94.31
259.451	101.31
259.92	100.31
260.389	96.31
260.859	97.31
261.328	104.31
261.797	109.31
262.266	98.31
262.735	79.31
263.204	97.31
263.673	97.31
264.142	101.31
264.611	98.31
265.08	109.31
265.549	99.31
266.018	97.31
266.487	88.31
266.955	89.31
267.424	101.31
267.893	106.31
268.362	92.31
268.83	105.31
269.299	109.31
269.768	78.31
270.236	100.31
270.705	84.31
271.174	94.31
271.642	111.31
272.111	88.31
272.579	103.31
273.048	89.31
273.516	106.31
273.985	108.31
274.453	114.31
274.922	120.31
275.39	109.31
275.858	120.31
276.327	104.31
276.795	109.31
277.263	97.31
277.731	99.31
278.2	109.31
278.668	120.31
279.136	116.31
279.604	100.31
280.072	104.31
280.54	108.31
281.008	116.31
281.477	124.31
281.945	115.31
282.413	114.31
282.881	100.31
283.348	106.31
283.816	100.31
284.284	94.31
284.752	98.31
285.22	99.31
285.688	118.31
286.156	111.31
286.623	113.31
287.091	123.31
287.559	99.31
288.026	101.31
288.494	104.31
288.962	119.31
289.429	88.31
289.897	121.31
290.364	98.31
290.832	108.31
291.3	119.31
291.767	104.31
292.234	106.31
292.702	116.31
293.169	128.31
293.637	128.31
294.104	123.31
294.571	123.31
295.039	121.31
295.506	114.31
295.973	119.31
296.44	129.31
296.908	113.31
297.375	125.31
297.842	119.31
298.309	104.31
298.776	102.31
299.243	123.31
299.71	112.31
300.177	110.31
300.644	117.31
301.111	117.31
301.578	106.31
302.045	105.31
302.512	114.31
302.979	102.31
303.446	117.31
303.913	131.31
304.379	123.31
304.846	131.31
305.313	138.31
305.78	135.31
306.246	134.31
306.713	114.31
307.18	116.31
307.646	129.31
308.113	134.31
308.579	144.31
309.046	143.31
309.512	136.31
309.979	147.31
310.445	135.31
310.912	122.31
311.378	128.31
311.845	111.31
312.311	141.31
312.777	149.31
313.244	138.31
313.71	130.31
314.176	162.31
314.642	139.31
315.109	141.31
315.575	145.31
316.041	155.31
316.507	139.31
316.973	139.31
317.439	121.31
317.905	131.31
318.371	158.31
318.837	168.31
319.303	155.31
319.769	143.31
320.235	151.31
320.701	159.31
321.167	145.31
321.633	159.31
322.099	162.31
322.564	139.31
323.03	150.31
323.496	151.31
323.962	152.31
324.427	143.31
324.893	160.31
325.359	136.31
325.824	145.31
326.29	168.31
326.755	154.31
327.221	172.31
327.686	145.31
328.152	175.31
328.617	151.31
329.083	148.31
329.548	179.31
330.014	166.31
330.479	186.31
330.944	180.31
331.41	167.31
331.875	163.31
332.34	169.31
332.805	161.31
333.271	154.31
333.736	173.31
334.201	161.31
334.666	163.31
335.131	182.31
335.596	163.31
336.061	175.31
336.526	159.31
336.991	157.31
337.456	152.31
337.921	172.31
338.386	181.31
338.851	171.31
339.316	160.31
339.781	176.31
340.246	168.31
340.711	160.31
341.175	173.31
341.64	180.31
342.105	175.31
342.569	176.31
343.034	189.31
343.499	187.31
343.963	185.31
344.428	186.31
344.893	198.31
345.357	176.31
345.822	180.31
346.286	171.31
346.751	190.31
347.215	198.31
347.679	195.31
348.144	205.31
348.608	187.31
349.073	197.31
349.537	199.31
350.001	220.31
350.465	211.31
350.93	199.31
351.394	209.31
351.858	216.31
352.322	198.31
352.786	211.31
353.25	212.31
353.715	209.31
354.179	219.31
354.643	229.31
355.107	222.31
355.571	230.31
356.035	263.31
356.498	232.31
356.962	242.31
357.426	231.31
357.89	219.31
358.354	231.31
358.818	236.31
359.281	214.31
359.745	216.31
360.209	219.31
360.673	225.31
361.136	225.31
361.6	227.31
362.064	233.31
362.527	251.31
362.991	235.31
363.454	222.31
363.918	222.31
364.381	238.31
364.845	227.31
365.308	224.31
365.772	245.31
366.235	245.31
366.698	256.31
367.162	225.31
367.625	216.31
368.088	240.31
368.552	239.31
369.015	253.31
369.478	247.31
369.941	247.31
370.404	252.31
370.867	227.31
371.331	249.31
371.794	262.31
372.257	236.31
372.72	248.31
373.183	277.31
373.646	253.31
374.109	263.31
374.572	245.31
375.035	267.31
375.497	274.31
375.96	261.31
376.423	255.31
376.886	261.31
377.349	267.31
377.811	256.31
378.274	289.31
378.737	279.31
379.199	264.31
379.662	282.31
380.125	269.31
380.587	274.31
381.05	269.31
381.512	277.31
381.975	293.31
382.437	275.31
382.9	276.31
383.362	269.31
383.825	304.31
384.287	288.31
384.75	284.31
385.212	302.31
385.674	306.31
386.136	296.31
386.599	313.31
387.061	311.31
387.523	318.31
387.985	299.31
388.447	307.31
388.91	334.31
389.372	305.31
389.834	289.31
390.296	306.31
390.758	302.31
391.22	293.31
391.682	299.31
392.144	300.31
392.606	314.31
393.068	329.31
393.529	337.31
393.991	340.31
394.453	325.31
394.915	326.31
395.377	321.31
395.838	321.31
396.3	337.31
396.762	324.31
397.224	315.31
397.685	313.31
398.147	324.31
398.608	335.31
399.07	325.31
399.531	349.31
399.993	335.31
400.454	331.31
400.916	341.31
401.377	343.31
401.839	339.31
402.3	360.31
402.762	340.31
403.223	367.31
403.684	379.31
404.145	357.31
404.607	348.31
405.068	347.31
405.529	369.31
405.99	365.31
406.451	358.31
406.913	373.31
407.374	369.31
407.835	357.31
408.296	365.31
408.757	363.31
409.218	380.31
409.679	361.31
410.14	359.31
410.601	399.31
411.062	379.31
411.522	380.31
411.983	402.31
412.444	413.31
412.905	408.31
413.366	429.31
413.826	437.31
414.287	460.31
414.748	558.31
415.208	556.31
415.669	473.31
416.13	435.31
416.59	415.31
417.051	440.31
417.511	459.31
417.972	501.31
418.432	550.31
418.893	591.31
419.353	582.31
419.814	437.31
420.274	412.31
420.734	411.31
421.195	437.31
421.655	420.31
422.115	412.31
422.576	420.31
423.036	425.31
423.496	426.31
423.956	449.31
424.416	472.31
424.876	525.31
425.336	515.31
425.797	504.31
426.257	519.31
426.717	507.31
427.177	455.31
427.637	471.31
428.097	486.31
428.556	487.31
429.016	523.31
429.476	539.31
429.936	520.31
430.396	517.31
430.856	525.31
431.315	506.31
431.775	557.31
432.235	595.31
432.694	607.31
433.154	575.31
433.614	561.31
434.073	557.31
434.533	506.31
434.993	466.31
435.452	516.31
435.912	499.31
436.371	484.31
436.83	478.31
437.29	473.31
437.749	448.31
438.209	470.31
438.668	466.31
439.127	481.31
439.587	488.31
440.046	442.31
440.505	451.31
440.964	469.31
441.424	471.31
441.883	473.31
442.342	458.31
442.801	459.31
443.26	468.31
443.719	462.31
444.178	423.31
444.637	466.31
445.096	455.31
445.555	435.31
446.014	480.31
446.473	471.31
446.932	472.31
447.391	460.31
447.849	463.31
448.308	454.31
448.767	486.31
449.226	485.31
449.685	459.31
450.143	497.31
450.602	486.31
451.061	479.31
451.519	453.31
451.978	474.31
452.436	469.31
452.895	446.31
453.353	457.31
453.812	475.31
454.27	481.31
454.729	458.31
455.187	501.31
455.646	502.31
456.104	487.31
456.562	475.31
457.021	493.31
457.479	481.31
457.937	468.31
458.395	493.31
458.854	479.31
459.312	495.31
459.77	491.31
460.228	512.31
460.686	501.31
461.144	501.31
461.602	508.31
462.06	483.31
462.518	493.31
462.976	479.31
463.434	471.31
463.892	512.31
464.35	518.31
464.808	525.31
465.266	517.31
465.724	529.31
466.181	553.31
466.639	560.31
467.097	545.31
467.555	577.31
468.012	589.31
468.47	575.31
468.928	560.31
469.385	615.31
469.843	616.31
470.3	594.31
470.758	637.31
471.215	641.31
471.673	615.31
472.13	649.31
472.588	703.31
473.045	695.31
473.503	682.31
473.96	697.31
474.417	718.31
474.875	715.31
475.332	761.31
475.789	797.31
476.246	820.31
476.704	826.31
477.161	827.31
477.618	879.31
478.075	896.31
478.532	957.31
478.989	1028.31
479.446	1115.31
479.903	1182.31
480.36	1263.31
480.817	1295.31
481.274	1398.31
481.731	1552.31
482.188	1644.31
482.645	1767.31
483.102	1841.31
483.558	1955.31
484.015	2031.31
484.472	1997.31
484.929	1971.31
485.385	1900.31
485.842	1881.31
486.299	1836.31
486.755	1679.31
487.212	1527.31
487.668	1409.31
488.125	1316.31
488.582	1203.31
489.038	1170.31
489.494	1150.31
489.951	1135.31
490.407	1082.31
490.864	1113.31
491.32	1039.31
491.776	1079.31
492.233	1040.31
492.689	1022.31
493.145	1011.31
493.602	981.31
494.058	1029.31
494.514	1032.31
494.97	1020.31
495.426	1051.31
495.882	1066.31
496.338	1031.31
496.794	1001.31
497.251	1041.31
497.707	1042.31
498.163	1019.31
498.618	1064.31
499.074	1030.31
499.53	1076.31
499.986	1041.31
500.442	1084.31
500.898	1043.31
501.354	1047.31
501.809	1006.31
502.265	1039.31
502.721	1061.31
503.177	1066.31
503.632	1083.31
504.088	1031.31
504.543	1072.31
504.999	1096.31
505.455	1098.31
505.91	1071.31
506.366	1063.31
506.821	1062.31
507.277	1102.31
507.732	1088.31
508.187	1093.31
508.643	1100.31
509.098	1069.31
509.553	1086.31
510.009	1107.31
510.464	1127.31
510.919	1145.31
511.375	1149.31
511.83	1161.31
512.285	1156.31
512.74	1193.31
513.195	1219.31
513.65	1244.31
514.105	1241.31
514.56	1239.31
515.015	1267.31
515.47	1265.31
515.925	1243.31
516.38	1264.31
516.835	1270.31
517.29	1264.31
517.745	1275.31
518.2	1248.31
518.655	1218.31
519.109	1227.31
519.564	1205.31
520.019	1201.31
520.474	1208.31
520.928	1179.31
521.383	1183.31
521.838	1161.31
522.292	1178.31
522.747	1145.31
523.201	1167.31
523.656	1140.31
524.11	1149.31
524.565	1131.31
525.019	1155.31
525.474	1155.31
525.928	1122.31
526.382	1141.31
526.837	1147.31
527.291	1150.31
527.745	1119.31
528.2	1127.31
528.654	1133.31
529.108	1095.31
529.562	1124.31
530.016	1122.31
530.47	1125.31
530.925	1108.31
531.379	1110.31
531.833	1127.31
532.287	1134.31
532.741	1127.31
533.195	1116.31
533.649	1127.31
534.103	1137.31
534.556	1130.31
535.01	1139.31
535.464	1129.31
535.918	1128.31
536.372	1137.31
536.826	1147.31
537.279	1121.31
537.733	1136.31
538.187	1119.31
538.64	1124.31
539.094	1137.31
539.548	1167.31
540.001	1121.31
540.455	1151.31
540.908	1128.31
541.362	1155.31
541.815	1146.31
542.269	1216.31
542.722	1192.31
543.175	1190.31
543.629	1215.31
544.082	1228.31
544.536	1219.31
544.989	1255.31
545.442	1239.31
545.895	1207.31
546.349	1259.31
546.802	1250.31
547.255	1244.31
547.708	1219.31
548.161	1290.31
548.614	1281.31
549.067	1257.31
549.52	1272.31
549.973	1256.31
550.426	1255.31
550.879	1234.31
551.332	1246.31
551.785	1207.31
552.238	1260.31
552.691	1275.31
553.144	1270.31
553.596	1274.31
554.049	1287.31
554.502	1332.31
554.955	1362.31
555.407	1365.31
555.86	1339.31
556.313	1353.31
556.765	1329.31
557.218	1318.31
557.67	1328.31
558.123	1323.31
558.576	1323.31
559.028	1340.31
559.48	1354.31
559.933	1293.31
560.385	1299.31
560.838	1237.31
561.29	1208.31
561.742	1215.31
562.195	1186.31
562.647	1192.31
563.099	1155.31
563.551	1198.31
564.004	1178.31
564.456	1143.31
564.908	1139.31
565.36	1113.31
565.812	1101.31
566.264	1128.31
566.716	1069.31
567.168	1063.31
567.62	1051.31
568.072	1059.31
568.524	1026.31
568.976	1035.31
569.428	1008.31
569.88	1043.31
570.332	1042.31
570.784	1049.31
571.235	1027.31
571.687	1046.31
572.139	1023.31
572.59	1064.31
573.042	1084.31
573.494	1107.31
573.945	1052.31
574.397	1059.31
574.849	1030.31
575.3	1029.31
575.752	1020.31
576.203	1036.31
576.655	1022.31
577.106	1013.31
577.557	1015.31
578.009	987.31
578.46	995.31
578.912	964.31
579.363	967.31
579.814	985.31
580.265	997.31
580.717	984.31
581.168	993.31
581.619	992.31
582.07	934.31
582.521	1021.31
582.972	1005.31
583.423	988.31
583.875	1018.31
584.326	976.31
584.777	997.31
585.227	1017.31
585.678	1026.31
586.129	1080.31
586.58	1069.31
587.031	1086.31
587.482	1085.31
587.933	1147.31
588.384	1145.31
588.834	1112.31
589.285	1107.31
589.736	1124.31
590.186	1087.31
590.637	1087.31
591.088	1081.31
591.538	1059.31
591.989	1039.31
592.439	1047.31
592.89	1077.31
593.34	1011.31
593.791	1002.31
594.241	981.31
594.692	999.31
595.142	993.31
595.593	1039.31
596.043	999.31
596.493	1007.31
596.943	995.31
597.394	1041.31
597.844	1033.31
598.294	1046.31
598.744	1087.31
599.195	1163.31
599.645	1209.31
600.095	1244.31
600.545	1315.31
600.995	1371.31
601.445	1361.31
601.895	1460.31
602.345	1491.31
602.795	1512.31
603.245	1458.31
603.695	1368.31
604.145	1327.31
604.594	1269.31
605.044	1195.31
605.494	1145.31
605.944	1128.31
606.393	1027.31
606.843	1021.31
607.293	1012.31
607.743	1011.31
608.192	1034.31
608.642	1031.31
609.091	1005.31
609.541	1052.31
609.99	1036.31
610.44	981.31
610.889	1018.31
611.339	984.31
611.788	950.31
612.238	979.31
612.687	964.31
613.136	999.31
613.586	1007.31
614.035	1010.31
614.484	1021.31
614.933	979.31
615.383	1010.31
615.832	951.31
616.281	955.31
616.73	947.31
617.179	900.31
617.628	913.31
618.077	897.31
618.526	820.31
618.975	890.31
619.424	850.31
619.873	851.31
620.322	878.31
620.771	854.31
621.22	843.31
621.669	818.31
622.118	821.31
622.567	804.31
623.015	817.31
623.464	783.31
623.913	792.31
624.361	765.31
624.81	803.31
625.259	800.31
625.707	797.31
626.156	778.31
626.604	792.31
627.053	799.31
627.501	781.31
627.95	794.31
628.398	812.31
628.847	791.31
629.295	765.31
629.744	788.31
630.192	778.31
630.64	787.31
631.089	747.31
631.537	734.31
631.985	741.31
632.433	721.31
632.881	694.31
633.33	745.31
633.778	729.31
634.226	764.31
634.674	762.31
635.122	765.31
635.57	779.31
636.018	759.31
636.466	757.31
636.914	801.31
637.362	789.31
637.81	791.31
638.258	836.31
638.705	831.31
639.153	836.31
639.601	867.31
640.049	858.31
640.497	899.31
640.944	893.31
641.392	870.31
641.84	830.31
642.287	788.31
642.735	786.31
643.182	780.31
643.63	808.31
644.078	800.31
644.525	767.31
644.973	792.31
645.42	808.31
645.867	857.31
646.315	835.31
646.762	882.31
647.21	886.31
647.657	953.31
648.104	981.31
648.551	980.31
648.999	1054.31
649.446	1118.31
649.893	1238.31
650.34	1408.31
650.787	1680.31
651.234	2025.31
651.682	2720.31
652.129	3717.31
652.576	5335.31
653.023	7276.31
653.47	8914.31
653.917	9959.31
654.363	10577.31
654.81	11068.31
655.257	11605.31
655.704	8730.31
656.151	5330.31
656.598	3451.31
657.044	2533.31
657.491	1935.31
657.938	1574.31
658.385	1349.31
658.831	1191.31
659.278	1076.31
659.724	1001.31
660.171	935.31
660.618	865.31
661.064	829.31
661.511	797.31
661.957	776.31
662.404	743.31
662.85	754.31
663.296	766.31
663.743	733.31
664.189	690.31
664.635	672.31
665.082	716.31
665.528	713.31
665.974	695.31
666.42	646.31
666.867	673.31
667.313	647.31
667.759	619.31
668.205	658.31
668.651	647.31
669.097	663.31
669.543	633.31
669.989	634.31
670.435	645.31
670.881	668.31
671.327	658.31
671.773	702.31
672.219	750.31
672.665	786.31
673.11	808.31
673.556	792.31
674.002	823.31
674.448	845.31
674.893	771.31
675.339	665.31
675.785	612.31
676.23	579.31
676.676	562.31
677.122	571.31
677.567	543.31
678.013	542.31
678.458	526.31
678.904	503.31
679.349	509.31
679.794	522.31
680.24	502.31
680.685	511.31
681.131	503.31
681.576	519.31
682.021	513.31
682.466	509.31
682.912	528.31
683.357	537.31
683.802	577.31
684.247	601.31
684.692	635.31
685.137	663.31
685.583	702.31
686.028	695.31
686.473	731.31
686.918	633.31
687.363	578.31
687.807	558.31
688.252	556.31
688.697	507.31
689.142	500.31
689.587	509.31
690.032	503.31
690.477	511.31
690.921	518.31
691.366	554.31
691.811	568.31
692.255	612.31
692.7	697.31
693.145	890.31
693.589	1280.31
694.034	1715.31
694.478	1868.31
694.923	1755.31
695.367	2057.31
695.812	1958.31
696.256	852.31
696.701	567.31
697.145	527.31
697.59	513.31
698.034	463.31
698.478	488.31
698.922	485.31
699.367	480.31
699.811	497.31
700.255	536.31
700.699	562.31
701.143	591.31
701.588	637.31
702.032	678.31
702.476	683.31
702.92	718.31
703.364	816.31
703.808	1187.31
704.252	1593.31
704.696	1831.31
705.14	1709.31
705.584	2099.31
706.027	1727.31
706.471	853.31
706.915	601.31
707.359	528.31
707.803	506.31
708.246	454.31
708.69	455.31
709.134	462.31
709.577	445.31
710.021	435.31
710.465	437.31
710.908	454.31
711.352	455.31
711.795	509.31
712.239	536.31
712.682	553.31
713.126	556.31
713.569	587.31
714.012	569.31
714.456	463.31
714.899	429.31
715.342	434.31
715.786	425.31
716.229	392.31
716.672	368.31
717.115	382.31
717.558	365.31
718.002	387.31
718.445	414.31
718.888	415.31
719.331	430.31
719.774	435.31
720.217	435.31
720.66	432.31
721.103	399.31
721.546	377.31
721.989	370.31
722.432	388.31
722.874	362.31
723.317	389.31
723.76	393.31
724.203	411.31
724.645	532.31
725.088	681.31
725.531	687.31
725.974	699.31
726.416	742.31
726.859	511.31
727.301	398.31
727.744	374.31
728.187	355.31
728.629	358.31
729.071	379.31
729.514	386.31
729.956	417.31
730.399	419.31
730.841	427.31
731.283	431.31
731.726	407.31
732.168	415.31
732.61	407.31
733.053	455.31
733.495	479.31
733.937	514.31
734.379	570.31
734.821	683.31
735.263	929.31
735.705	1563.31
736.148	2522.31
736.59	2933.31
737.032	2690.31
737.474	2956.31
737.916	1493.31
738.357	707.31
738.799	531.31
739.241	505.31
739.683	455.31
740.125	468.31
740.567	452.31
741.008	470.31
741.45	507.31
741.892	531.31
742.334	581.31
742.775	529.31
743.217	541.31
743.658	480.31
744.1	456.31
744.542	509.31
744.983	560.31
745.425	529.31
745.866	588.31
746.307	491.31
746.749	481.31
747.19	560.31
747.632	871.31
748.073	1656.31
748.514	2661.31
748.956	3237.31
749.397	4371.31
749.838	3596.31
750.279	2913.31
750.72	2177.31
751.162	1004.31
751.603	546.31
752.044	400.31
752.485	358.31
752.926	357.31
753.367	346.31
753.808	321.31
754.249	325.31
754.69	313.31
755.131	305.31
755.572	335.31
756.013	328.31
756.453	307.31
756.894	303.31
757.335	325.31
757.776	333.31
758.216	342.31
758.657	329.31
759.098	359.31
759.538	395.31
759.979	490.31
760.42	757.31
760.86	1679.31
761.301	3909.31
761.741	5789.31
762.182	5927.31
762.622	5572.31
763.063	2611.31
763.503	1058.31
763.943	535.31
764.384	420.31
764.824	381.31
765.264	352.31
765.705	325.31
766.145	307.31
766.585	311.31
767.025	300.31
767.465	287.31
767.906	308.31
768.346	297.31
768.786	318.31
769.226	404.31
769.666	629.31
770.106	1335.31
770.546	2281.31
770.986	2543.31
771.426	2482.31
771.866	1368.31
772.306	661.31
772.745	392.31
773.185	313.31
773.625	291.31
774.065	309.31
774.505	347.31
774.944	527.31
775.384	821.31
775.824	981.31
776.263	939.31
776.703	661.31
777.142	382.31
777.582	269.31
778.021	249.31
778.461	242.31
778.9	239.31
779.34	233.31
779.779	235.31
780.219	228.31
780.658	221.31
781.097	226.31
781.537	224.31
781.976	230.31
782.415	219.31
782.855	216.31
783.294	196.31
783.733	229.31
784.172	208.31
784.611	213.31
785.05	209.31
785.489	219.31
785.928	235.31
786.367	248.31
786.806	254.31
787.245	249.31
787.684	241.31
788.123	277.31
788.562	261.31
789.001	249.31
789.44	246.31
789.879	224.31
790.317	237.31
790.756	243.31
791.195	266.31
791.634	305.31
792.072	415.31
792.511	840.31
792.95	1803.31
793.388	2218.31
793.827	1985.31
794.265	1133.31
794.704	596.31
795.142	342.31
795.581	271.31
796.019	249.31
796.458	255.31
796.896	232.31
797.334	281.31
797.773	309.31
798.211	445.31
798.649	861.31
799.087	1394.31
799.526	2167.31
799.964	2428.31
800.402	2011.31
800.84	1190.31
801.278	608.31
801.716	387.31
802.154	297.31
802.592	276.31
803.03	279.31
803.468	273.31
803.906	255.31
804.344	252.31
804.782	274.31
805.22	267.31
805.658	262.31
806.096	263.31
806.533	293.31
806.971	325.31
807.409	407.31
807.847	631.31
808.284	1439.31
808.722	2821.31
809.16	3978.31
809.597	5485.31
810.035	7095.31
810.472	6034.31
810.91	3375.31
811.347	1645.31
811.785	759.31
812.222	469.31
812.66	345.31
813.097	300.31
813.535	266.31
813.972	251.31
814.409	225.31
814.846	215.31
815.284	245.31
815.721	241.31
816.158	236.31
816.595	302.31
817.032	344.31
817.47	314.31
817.907	300.31
818.344	264.31
818.781	234.31
819.218	256.31
819.655	317.31
820.092	409.31
820.529	431.31
820.966	377.31
821.403	286.31
821.839	264.31
822.276	236.31
822.713	266.31
823.15	263.31
823.587	263.31
824.023	337.31
824.46	677.31
824.897	1257.31
825.333	1399.31
825.77	823.31
826.206	484.31
826.643	296.31
827.08	201.31
827.516	191.31
827.953	182.31
828.389	187.31
828.825	188.31
829.262	184.31
829.698	173.31
830.135	160.31
830.571	158.31
831.007	165.31
831.443	177.31
831.88	189.31
832.316	181.31
832.752	186.31
833.188	181.31
833.624	177.31
834.06	174.31
834.497	156.31
834.933	183.31
835.369	178.31
835.805	185.31
836.241	176.31
836.677	205.31
837.112	212.31
837.548	210.31
837.984	263.31
838.42	440.31
838.856	1089.31
839.292	2232.31
839.727	2410.31
840.163	1679.31
840.599	1853.31
841.034	2723.31
841.47	2223.31
841.906	1234.31
842.341	717.31
842.777	445.31
843.212	410.31
843.648	353.31
844.083	276.31
844.519	211.31
844.954	180.31
845.39	163.31
845.825	158.31
846.261	154.31
846.696	149.31
847.131	153.31
847.566	160.31
848.002	155.31
848.437	147.31
848.872	147.31
849.307	190.31
849.742	235.31
850.177	417.31
850.613	845.31
851.048	950.31
851.483	567.31
851.918	375.31
852.353	235.31
852.788	169.31
853.223	151.31
853.657	143.31
854.092	134.31
854.527	144.31
854.962	151.31
855.397	141.31
855.832	143.31
856.266	128.31
856.701	129.31
857.136	148.31
857.57	144.31
858.005	170.31
858.44	159.31
858.874	157.31
859.309	149.31
859.743	151.31
860.178	131.31
860.612	162.31
861.047	162.31
861.481	205.31
861.915	216.31
862.35	176.31
862.784	170.31
863.218	156.31
863.653	116.31
864.087	149.31
864.521	184.31
864.955	193.31
865.39	288.31
865.824	297.31
866.258	288.31
866.692	394.31
867.126	369.31
867.56	280.31
867.994	219.31
868.428	157.31
868.862	164.31
869.296	155.31
869.73	184.31
870.164	181.31
870.598	167.31
871.031	159.31
871.465	134.31
871.899	136.31
872.333	138.31
872.766	125.31
873.2	111.31
873.634	128.31
874.067	133.31
874.501	111.31
874.935	117.31
875.368	129.31
875.802	127.31
876.235	128.31
876.669	113.31
877.102	129.31
877.535	110.31
877.969	97.31
878.402	113.31
878.836	117.31
879.269	99.31
879.702	118.31
880.135	123.31
880.569	125.31
881.002	107.31
881.435	118.31
881.868	108.31
882.301	111.31
882.734	115.31
883.167	119.31
883.601	121.31
884.034	120.31
884.467	104.31
884.899	99.31
885.332	88.31
885.765	122.31
886.198	106.31
886.631	114.31
887.064	109.31
887.497	109.31
887.929	84.31
888.362	92.31
888.795	106.31
889.228	117.31
889.66	129.31
890.093	98.31
890.526	115.31
890.958	122.31
891.391	96.31
891.823	109.31
892.256	120.31
892.688	103.31
893.121	123.31
893.553	111.31
893.985	116.31
894.418	89.31
894.85	112.31
895.282	98.31
895.715	102.31
896.147	98.31
896.579	107.31
897.011	107.31
897.444	85.31
897.876	97.31
898.308	111.31
898.74	121.31
899.172	95.31
899.604	96.31
900.036	109.31
900.468	127.31
900.9	111.31
901.332	105.31
901.764	125.31
902.196	114.31
902.628	115.31
903.06	123.31
903.491	142.31
903.923	124.31
904.355	132.31
904.787	101.31
905.218	111.31
905.65	117.31
906.082	111.31
906.513	144.31
906.945	97.31
907.376	116.31
907.808	112.31
908.239	107.31
908.671	121.31
909.102	107.31
909.534	141.31
909.965	171.31
910.397	228.31
910.828	529.31
911.259	609.31
911.691	382.31
912.122	259.31
912.553	184.31
912.984	114.31
913.415	124.31
913.847	117.31
914.278	116.31
914.709	110.31
915.14	109.31
915.571	103.31
916.002	109.31
916.433	105.31
916.864	116.31
917.295	109.31
917.726	116.31
918.157	112.31
918.587	99.31
919.018	100.31
919.449	115.31
919.88	122.31
920.311	140.31
920.741	170.31
921.172	287.31
921.603	255.31
922.033	189.31
922.464	177.31
922.895	132.31
923.325	123.31
923.756	103.31
924.186	105.31
924.617	105.31
925.047	129.31
925.478	137.31
925.908	139.31
926.338	120.31
926.769	93.31
927.199	103.31
927.629	105.31
928.06	113.31
928.49	114.31
928.92	106.31
929.35	112.31
929.78	91.31
930.21	111.31
930.641	103.31
931.071	113.31
931.501	94.31
931.931	102.31
932.361	96.31
932.791	103.31
933.221	96.31
933.651	111.31
934.08	94.31
934.51	105.31
934.94	105.31
935.37	103.31
935.8	97.31
936.229	91.31
936.659	97.31
937.089	101.31
937.519	103.31
937.948	124.31
938.378	126.31
938.807	92.31
939.237	84.31
939.666	84.31
940.096	111.31
940.525	90.31
940.955	95.31
941.384	87.31
941.814	88.31
942.243	101.31
942.672	101.31
943.102	91.31
943.531	78.31
943.96	83.31
944.39	84.31
944.819	87.31
945.248	93.31
945.677	88.31
946.106	85.31
946.535	71.31
946.964	97.31
947.393	83.31
947.822	95.31
948.251	81.31
948.68	89.31
949.109	88.31
949.538	91.31
949.967	89.31
950.396	93.31
950.825	72.31
951.254	89.31
951.682	80.31
952.111	85.31
952.54	78.31
952.969	89.31
953.397	83.31
953.826	73.31
954.254	80.31
954.683	77.31
955.112	89.31
955.54	87.31
955.969	100.31
956.397	89.31
956.826	93.31
957.254	69.31
957.682	70.31
958.111	90.31
958.539	92.31
958.967	85.31
959.396	106.31
959.824	81.31
960.252	88.31
960.68	87.31
961.109	86.31
961.537	86.31
961.965	100.31
962.393	79.31
962.821	91.31
963.249	79.31
963.677	95.31
964.105	93.31
964.533	152.31
964.961	132.31
965.389	113.31
965.817	98.31
966.245	103.31
966.672	99.31
967.1	94.31
967.528	81.31
967.956	77.31
968.383	73.31
968.811	80.31
969.239	94.31
969.666	104.31
970.094	91.31
970.522	98.31
970.949	90.31
971.377	93.31
971.804	98.31
972.232	85.31
972.659	92.31
973.087	76.31
973.514	97.31
973.941	71.31
974.369	81.31
974.796	91.31
975.223	98.31
975.651	80.31
976.078	89.31
976.505	91.31
976.932	85.31
977.359	99.31
977.786	101.31
978.214	89.31
978.641	95.31
979.068	92.31
979.495	98.31
979.922	86.31
980.349	86.31
980.776	95.31
981.202	104.31
981.629	88.31
982.056	93.31
982.483	87.31
982.91	101.31
983.337	80.31
983.763	90.31
984.19	83.31
984.617	87.31
985.043	88.31
985.47	95.31
985.897	89.31
986.323	100.31
986.75	84.31
987.176	84.31
987.603	87.31
988.029	87.31
988.456	88.31
988.882	76.31
989.308	79.31
989.735	77.31
990.161	93.31
990.587	84.31
991.014	94.31
991.44	90.31
991.866	92.31
992.292	89.31
992.719	86.31
993.145	83.31
993.571	89.31
993.997	87.31
994.423	77.31
994.849	61.31
995.275	85.31
995.701	91.31
996.127	90.31
996.553	86.31
996.979	91.31
997.405	93.31
997.83	81.31
998.256	81.31
998.682	89.31
999.108	81.31
999.534	78.31
999.959	86.31
1000.385	75.31
1000.811	90.31
1001.236	85.31
1001.662	94.31
1002.087	68.31
1002.513	68.31
1002.938	91.31
1003.364	72.31
1003.789	87.31
1004.215	81.31
1004.64	59.31
1005.066	74.31
1005.491	75.31
1005.916	92.31
1006.342	97.31
1006.767	98.31
1007.192	67.31
1007.617	95.31
1008.042	97.31
1008.468	88.31
1008.893	91.31
1009.318	95.31
1009.743	93.31
1010.168	89.31
1010.593	101.31
1011.018	87.31
1011.443	89.31
1011.868	77.31
1012.293	87.31
1012.718	97.31
1013.143	80.31
1013.567	86.31
1013.992	78.31
1014.417	101.31
1014.842	95.31
1015.267	94.31
1015.691	89.31
1016.116	79.31
1016.541	87.31
1016.965	75.31
1017.39	95.31
1017.814	88.31
1018.239	84.31
1018.663	90.31
1019.088	82.31
1019.512	95.31
1019.937	76.31
1020.361	80.31
1020.785	65.31
1021.21	87.31
1021.634	67.31
1022.058	84.31
1022.483	101.31
1022.907	87.31
1023.331	86.31
1023.755	72.31
1024.179	79.31
1024.604	70.31
1025.028	75.31
1025.452	84.31
1025.876	77.31
1026.3	75.31
1026.724	85.31
1027.148	62.31
1027.572	85.31
1027.996	79.31
1028.42	90.31
1028.843	74.31
1029.267	89.31
1029.691	81.31
1030.115	79.31
1030.539	89.31
1030.962	85.31
1031.386	73.31
1031.81	98.31
1032.233	88.31
1032.657	86.31
1033.08	84.31
1033.504	93.31
1033.927	84.31
1034.351	90.31
1034.774	78.31
1035.198	87.31
1035.621	73.31
1036.045	83.31
1036.468	85.31
1036.891	85.31
1037.315	87.31
1037.738	89.31
1038.161	81.31
1038.584	96.31
1039.008	84.31
1039.431	72.31
1039.854	67.31
1040.277	70.31
1040.7	79.31
1041.123	81.31
1041.546	84.31
1041.969	75.31
1042.392	70.31
1042.815	87.31
1043.238	89.31
1043.661	73.31
1044.084	82.31
1044.507	92.31
1044.93	95.31
1045.352	78.31
1045.775	84.31
1046.198	75.31
1046.621	99.31
1047.043	87.31
1047.466	68.31
1047.889	81.31
1048.311	94.31
1048.734	78.31
1049.156	77.31
1049.579	87.31
1050.001	83.31
1050.424	90.31
1050.846	76.31
1051.269	78.31
1051.691	67.31
1052.113	86.31
1052.536	90.31
1052.958	78.31
1053.38	71.31
1053.802	77.31
1054.225	80.31
1054.647	80.31
1055.069	79.31
1055.491	70.31
1055.913	58.31
1056.335	68.31
1056.757	73.31
1057.179	79.31
1057.601	81.31
1058.023	75.31
1058.445	76.31
1058.867	79.31
1059.289	91.31
1059.711	71.31
1060.133	74.31
1060.555	70.31
1060.976	88.31
1061.398	89.31
1061.82	81.31
1062.241	90.31
1062.663	87.31
1063.085	69.31
1063.506	79.31
1063.928	91.31
1064.35	69.31
1064.771	89.31
1065.193	82.31
1065.614	77.31
1066.035	83.31
1066.457	76.31
1066.878	78.31
1067.3	70.31
1067.721	93.31
1068.142	85.31
1068.564	73.31
1068.985	90.31
1069.406	92.31
1069.827	99.31
1070.248	76.31
1070.67	80.31
1071.091	67.31
1071.512	75.31
1071.933	75.31
1072.354	82.31
1072.775	76.31
1073.196	70.31
1073.617	71.31
1074.038	67.31
1074.459	79.31
1074.88	94.31
1075.3	97.31
1075.721	72.31
1076.142	85.31
1076.563	78.31
1076.983	88.31
1077.404	96.31
1077.825	85.31
1078.246	75.31
1078.666	92.31
1079.087	77.31
1079.507	80.31
1079.928	93.31
1080.348	85.31
1080.769	77.31
1081.189	90.31
1081.61	79.31
1082.03	69.31
1082.451	79.31
1082.871	78.31
1083.291	67.31
1083.711	88.31
1084.132	74.31
1084.552	73.31
1084.972	87.31
1085.392	81.31
1085.813	83.31
1086.233	69.31
1086.653	84.31
1087.073	73.31
1087.493	79.31
1087.913	80.31
1088.333	86.31
1088.753	73.31
1089.173	96.31
1089.593	74.31
1090.013	77.31
1090.433	98.31
1090.852	70.31
1091.272	75.31
1091.692	83.31
1092.112	76.31
1092.531	87.31
1092.951	84.31
1093.371	85.31
1093.79	70.31
1094.21	71.31
1094.63	79.31
1095.049	99.31
1095.469	57.31
1095.888	81.31
1096.308	79.31
1096.727	90.31
1097.146	74.31
1097.566	78.31
1097.985	76.31
1098.405	79.31
1098.824	57.31
1099.243	86.31
1099.662	87.31
1100.082	69.31
1100.501	82.31
1100.92	86.31
1101.339	72.31
1101.758	83.31
