Data from 20171114-ORNL-Ar_H_NY_Subt18_08-03-12-927.txt Node
Date: Tue Nov 14 08:03:12 EST 2017
User: Ender
Spectrometer: HR+D1039
Trigger mode: 0
Integration Time (sec): 2.730000E-2
Scans to average: 10
Electric dark correction enabled: true
Nonlinearity correction enabled: false
Boxcar width: 0
XAxis mode: Wavelengths
Number of Pixels in Spectrum: 2048
>>>>>Begin Spectral Data<<<<<
187.836	-4.69
188.309	-4.69
188.782	-4.69
189.255	3.11
189.728	1.51
190.201	4.91
190.674	1.51
191.147	4.01
191.619	-5.49
192.092	0.71
192.565	2.61
193.038	2.91
193.511	5.31
193.984	-1.09
194.456	-4.09
194.929	-2.29
195.402	-4.19
195.874	-4.79
196.347	-3.59
196.82	-5.29
197.292	7.61
197.765	-1.59
198.237	-2.29
198.71	5.81
199.182	-3.19
199.655	6.11
200.127	4.61
200.6	1.11
201.072	-1.89
201.544	-3.29
202.017	-3.89
202.489	0.81
202.961	4.31
203.433	-6.39
203.906	-9.19
204.378	-5.19
204.85	-5.99
205.322	-8.19
205.794	-7.59
206.266	-1.69
206.739	-6.39
207.211	0.11
207.683	-8.69
208.155	-8.79
208.627	-8.09
209.099	-1.99
209.57	-11.69
210.042	-7.29
210.514	-7.49
210.986	-0.29
211.458	-7.09
211.93	-6.09
212.402	-2.09
212.873	-6.09
213.345	-9.39
213.817	-12.89
214.288	-0.29
214.76	-6.29
215.232	-3.19
215.703	1.81
216.175	1.41
216.646	-2.69
217.118	-7.29
217.589	-5.39
218.061	0.11
218.532	0.81
219.004	-4.49
219.475	-6.39
219.946	-0.89
220.418	-5.79
220.889	2.31
221.36	-1.19
221.832	-10.69
222.303	-3.29
222.774	-1.29
223.245	-11.09
223.717	-3.49
224.188	-10.79
224.659	-10.79
225.13	-5.19
225.601	-2.09
226.072	-3.49
226.543	-3.19
227.014	-4.49
227.485	-4.39
227.956	-5.49
228.427	1.51
228.898	-4.59
229.369	2.21
229.839	-6.39
230.31	-5.99
230.781	4.31
231.252	-5.29
231.722	-2.99
232.193	-5.69
232.664	-5.49
233.135	-1.89
233.605	-3.39
234.076	-15.59
234.546	-0.29
235.017	-2.39
235.487	-3.99
235.958	-5.59
236.428	-5.79
236.899	-3.39
237.369	3.01
237.84	-9.49
238.31	-0.69
238.78	-1.99
239.251	-5.49
239.721	-8.59
240.191	-4.79
240.662	-10.09
241.132	-9.89
241.602	-9.39
242.072	-4.19
242.542	1.91
243.013	-3.39
243.483	1.71
243.953	1.51
244.423	-1.09
244.893	-2.59
245.363	-13.49
245.833	-2.79
246.303	-6.79
246.773	-2.49
247.243	0.51
247.712	-2.09
248.182	-3.29
248.652	-4.19
249.122	-9.59
249.592	-7.39
250.061	-0.89
250.531	2.81
251.001	-4.09
251.471	0.51
251.94	6.51
252.41	-10.79
252.879	-10.79
253.349	2.21
253.818	3.11
254.288	-7.09
254.757	-6.89
255.227	-10.89
255.696	-1.59
256.166	-1.39
256.635	2.01
257.105	-5.69
257.574	-0.99
258.043	-5.29
258.513	-1.59
258.982	-1.29
259.451	-9.59
259.92	-0.79
260.389	0.31
260.859	5.81
261.328	-6.49
261.797	-1.99
262.266	-4.19
262.735	0.71
263.204	1.21
263.673	-7.69
264.142	-3.89
264.611	-15.59
265.08	-10.39
265.549	-9.79
266.018	-4.99
266.487	-8.99
266.955	-12.49
267.424	-11.79
267.893	-4.19
268.362	-10.09
268.83	-1.59
269.299	3.01
269.768	-7.19
270.236	-4.39
270.705	-5.69
271.174	-7.49
271.642	-5.69
272.111	-4.19
272.579	-6.89
273.048	-9.09
273.516	-6.29
273.985	-4.59
274.453	-1.19
274.922	-1.49
275.39	-0.99
275.858	-10.49
276.327	-0.29
276.795	-3.09
277.263	-10.49
277.731	0.31
278.2	-6.19
278.668	-1.49
279.136	-5.09
279.604	-5.39
280.072	-1.29
280.54	-0.69
281.008	-2.99
281.477	1.51
281.945	-3.39
282.413	-1.49
282.881	-1.49
283.348	-12.29
283.816	-0.79
284.284	-3.39
284.752	3.41
285.22	-1.99
285.688	-2.49
286.156	-2.79
286.623	0.91
287.091	-9.19
287.559	-1.69
288.026	-4.99
288.494	-8.69
288.962	-13.19
289.429	-10.29
289.897	-0.99
290.364	-0.79
290.832	-2.69
291.3	-12.09
291.767	-3.69
292.234	-2.69
292.702	-9.39
293.169	-10.09
293.637	2.51
294.104	-1.19
294.571	-10.09
295.039	-2.09
295.506	-7.89
295.973	-2.49
296.44	-4.69
296.908	-1.39
297.375	-4.79
297.842	-9.79
298.309	-8.59
298.776	-10.79
299.243	-3.79
299.71	-12.99
300.177	-4.29
300.644	1.71
301.111	-5.29
301.578	0.81
302.045	-2.09
302.512	1.21
302.979	-2.69
303.446	-1.19
303.913	-4.89
304.379	-4.69
304.846	-1.49
305.313	2.51
305.78	-5.79
306.246	-2.89
306.713	-4.29
307.18	-4.59
307.646	-0.99
308.113	-6.49
308.579	-2.19
309.046	-2.69
309.512	-1.69
309.979	-10.49
310.445	-3.29
310.912	-7.69
311.378	-3.49
311.845	-1.99
312.311	-9.59
312.777	-4.49
313.244	0.01
313.71	-0.09
314.176	-5.89
314.642	-11.39
315.109	-5.29
315.575	2.51
316.041	1.81
316.507	-6.49
316.973	-0.29
317.439	-0.39
317.905	-1.19
318.371	-0.99
318.837	2.31
319.303	-5.49
319.769	-8.89
320.235	-6.49
320.701	-5.09
321.167	0.51
321.633	-10.19
322.099	-5.39
322.564	-2.19
323.03	-8.39
323.496	-4.99
323.962	-6.89
324.427	-8.19
324.893	-2.39
325.359	-1.69
325.824	-1.89
326.29	-3.79
326.755	-3.49
327.221	-5.99
327.686	-1.59
328.152	-1.49
328.617	-4.29
329.083	1.21
329.548	-1.09
330.014	1.91
330.479	-2.69
330.944	1.61
331.41	0.21
331.875	-3.09
332.34	-7.29
332.805	-6.49
333.271	-0.69
333.736	-9.89
334.201	2.01
334.666	-0.99
335.131	-1.79
335.596	-2.79
336.061	-6.19
336.526	-12.39
336.991	-3.39
337.456	3.01
337.921	-2.49
338.386	-5.39
338.851	-2.19
339.316	-1.19
339.781	-1.69
340.246	3.91
340.711	-9.39
341.175	1.51
341.64	-12.99
342.105	-1.79
342.569	0.01
343.034	0.51
343.499	-4.99
343.963	-7.69
344.428	2.21
344.893	1.11
345.357	-2.19
345.822	-4.29
346.286	1.71
346.751	-2.79
347.215	-2.59
347.679	-6.09
348.144	-3.79
348.608	1.61
349.073	-5.79
349.537	-10.69
350.001	-7.49
350.465	2.21
350.93	-6.89
351.394	1.41
351.858	-8.09
352.322	0.41
352.786	-3.79
353.25	-3.89
353.715	0.61
354.179	1.61
354.643	-5.29
355.107	-5.49
355.571	1.91
356.035	4.21
356.498	-0.69
356.962	-7.59
357.426	1.61
357.89	-3.29
358.354	1.21
358.818	4.81
359.281	-3.19
359.745	0.11
360.209	-6.29
360.673	-4.19
361.136	1.51
361.6	-2.99
362.064	-1.19
362.527	-0.29
362.991	6.01
363.454	-6.29
363.918	-11.69
364.381	-9.99
364.845	-7.89
365.308	-6.19
365.772	-2.19
366.235	-1.79
366.698	-7.59
367.162	-3.79
367.625	-3.99
368.088	-4.69
368.552	-0.69
369.015	-4.09
369.478	-1.19
369.941	3.31
370.404	-5.89
370.867	-5.59
371.331	-4.19
371.794	-5.99
372.257	-6.19
372.72	-0.29
373.183	-2.59
373.646	0.41
374.109	-4.69
374.572	-2.59
375.035	-3.19
375.497	-5.79
375.96	-5.99
376.423	-9.69
376.886	-5.29
377.349	-1.59
377.811	-6.59
378.274	-4.89
378.737	-10.49
379.199	-4.79
379.662	-3.99
380.125	-0.59
380.587	-11.69
381.05	-6.69
381.512	-1.99
381.975	1.61
382.437	-4.29
382.9	-6.59
383.362	-3.09
383.825	-3.29
384.287	-11.69
384.75	-10.09
385.212	-1.99
385.674	-2.59
386.136	-1.79
386.599	0.11
387.061	-5.29
387.523	-4.59
387.985	1.21
388.447	4.61
388.91	-3.49
389.372	0.91
389.834	3.91
390.296	-7.09
390.758	-3.69
391.22	-4.19
391.682	1.21
392.144	-4.89
392.606	4.31
393.068	3.61
393.529	1.81
393.991	-2.59
394.453	-4.39
394.915	-2.89
395.377	-0.09
395.838	-4.19
396.3	-1.19
396.762	1.81
397.224	0.71
397.685	-1.19
398.147	-3.49
398.608	-8.39
399.07	-11.19
399.531	-9.99
399.993	-6.59
400.454	-3.49
400.916	-4.49
401.377	-3.29
401.839	-1.49
402.3	-8.79
402.762	-0.49
403.223	-1.59
403.684	-5.79
404.145	-5.39
404.607	-3.89
405.068	0.81
405.529	-0.89
405.99	-7.59
406.451	-16.29
406.913	0.21
407.374	-0.29
407.835	-4.69
408.296	1.71
408.757	-5.59
409.218	-3.69
409.679	-5.39
410.14	-1.09
410.601	1.01
411.062	-1.59
411.522	2.41
411.983	-9.19
412.444	-7.59
412.905	-1.49
413.366	-2.49
413.826	-3.19
414.287	-3.09
414.748	-3.79
415.208	-2.09
415.669	-1.69
416.13	5.81
416.59	-1.79
417.051	2.41
417.511	-2.79
417.972	-5.19
418.432	-12.79
418.893	2.51
419.353	0.51
419.814	1.21
420.274	-6.89
420.734	-2.69
421.195	-6.79
421.655	-9.19
422.115	-4.39
422.576	2.21
423.036	-2.99
423.496	-0.69
423.956	-0.59
424.416	-2.19
424.876	-3.49
425.336	-6.19
425.797	-8.49
426.257	-0.09
426.717	-2.39
427.177	8.01
427.637	-6.39
428.097	-5.09
428.556	-3.49
429.016	-1.09
429.476	-6.39
429.936	-4.39
430.396	-3.99
430.856	-8.29
431.315	4.81
431.775	-2.49
432.235	6.61
432.694	-6.99
433.154	1.21
433.614	-5.59
434.073	-7.59
434.533	-2.69
434.993	-6.19
435.452	-3.19
435.912	1.31
436.371	-2.69
436.83	-3.79
437.29	5.81
437.749	-4.59
438.209	-8.99
438.668	-6.29
439.127	-4.49
439.587	0.21
440.046	-4.89
440.505	-5.99
440.964	-0.99
441.424	-5.09
441.883	-5.39
442.342	0.11
442.801	-7.49
443.26	-0.19
443.719	2.41
444.178	-1.39
444.637	-14.19
445.096	-6.09
445.555	-3.99
446.014	4.31
446.473	0.31
446.932	0.91
447.391	-4.99
447.849	-13.19
448.308	-4.39
448.767	-11.39
449.226	-4.79
449.685	-5.39
450.143	3.31
450.602	-7.29
451.061	-9.09
451.519	-4.59
451.978	-8.19
452.436	-5.19
452.895	-6.29
453.353	-5.89
453.812	0.11
454.27	-1.69
454.729	4.01
455.187	-9.99
455.646	-3.49
456.104	-6.49
456.562	-0.39
457.021	-2.59
457.479	-0.09
457.937	-1.59
458.395	-6.09
458.854	-8.69
459.312	-1.89
459.77	-8.59
460.228	-7.29
460.686	-7.29
461.144	4.91
461.602	-1.09
462.06	-11.29
462.518	-1.89
462.976	-3.09
463.434	-2.49
463.892	-11.09
464.35	-6.29
464.808	-1.69
465.266	-3.09
465.724	-3.79
466.181	-0.39
466.639	0.01
467.097	3.21
467.555	-1.69
468.012	-1.39
468.47	-3.49
468.928	2.81
469.385	3.71
469.843	5.11
470.3	1.41
470.758	2.91
471.215	-7.79
471.673	-2.49
472.13	-7.19
472.588	-1.39
473.045	-8.19
473.503	-3.19
473.96	-8.19
474.417	-5.29
474.875	-10.69
475.332	-1.19
475.789	-2.49
476.246	-6.29
476.704	-4.89
477.161	-1.89
477.618	-7.29
478.075	-1.59
478.532	-5.09
478.989	-5.79
479.446	-9.99
479.903	4.71
480.36	-3.09
480.817	-7.39
481.274	-0.79
481.731	1.61
482.188	-6.39
482.645	-0.79
483.102	-6.69
483.558	-6.89
484.015	2.61
484.472	-4.99
484.929	-6.39
485.385	-4.69
485.842	3.21
486.299	-7.99
486.755	0.51
487.212	3.11
487.668	-5.69
488.125	-5.59
488.582	2.41
489.038	2.71
489.494	-8.69
489.951	-7.99
490.407	-5.09
490.864	-6.09
491.32	2.91
491.776	1.21
492.233	0.61
492.689	-10.79
493.145	-1.99
493.602	-1.59
494.058	0.61
494.514	-7.19
494.97	4.51
495.426	-5.69
495.882	-5.59
496.338	2.11
496.794	-0.69
497.251	-12.39
497.707	-3.89
498.163	-2.79
498.618	-1.99
499.074	2.61
499.53	-1.29
499.986	-2.79
500.442	-2.99
500.898	-5.19
501.354	-3.89
501.809	-1.39
502.265	-3.69
502.721	-2.39
503.177	2.11
503.632	-0.49
504.088	-2.39
504.543	2.51
504.999	-1.19
505.455	-10.99
505.91	-4.39
506.366	-5.59
506.821	-10.99
507.277	-5.09
507.732	-12.19
508.187	-9.89
508.643	3.31
509.098	-6.29
509.553	1.71
510.009	1.11
510.464	-9.29
510.919	3.81
511.375	-5.39
511.83	0.61
512.285	-3.59
512.74	6.91
513.195	-0.99
513.65	0.81
514.105	1.81
514.56	-4.39
515.015	-3.59
515.47	-1.19
515.925	-9.09
516.38	-6.29
516.835	-0.79
517.29	-0.19
517.745	-6.39
518.2	3.01
518.655	-5.49
519.109	-0.49
519.564	-0.19
520.019	-10.99
520.474	-9.49
520.928	-3.09
521.383	-4.29
521.838	-12.49
522.292	-1.89
522.747	3.51
523.201	-2.59
523.656	1.11
524.11	-3.99
524.565	-4.49
525.019	-10.29
525.474	-4.59
525.928	-4.69
526.382	-2.29
526.837	-8.09
527.291	-0.49
527.745	-1.49
528.2	-2.89
528.654	-4.09
529.108	-5.49
529.562	-9.19
530.016	-7.99
530.47	-7.39
530.925	-1.49
531.379	-6.49
531.833	-2.29
532.287	-3.99
532.741	-4.29
533.195	-4.39
533.649	-1.09
534.103	5.31
534.556	-8.59
535.01	-3.09
535.464	-5.99
535.918	3.91
536.372	-1.79
536.826	3.11
537.279	-6.19
537.733	0.01
538.187	-1.79
538.64	-1.89
539.094	-3.59
539.548	-3.19
540.001	-10.49
540.455	-4.89
540.908	-2.29
541.362	-6.19
541.815	-6.99
542.269	-0.39
542.722	-8.99
543.175	-8.69
543.629	-7.39
544.082	2.21
544.536	-4.39
544.989	-8.99
545.442	-3.59
545.895	-4.29
546.349	-1.89
546.802	-1.49
547.255	-8.49
547.708	-7.89
548.161	-2.79
548.614	-6.39
549.067	6.01
549.52	-2.39
549.973	-2.19
550.426	-2.69
550.879	-8.79
551.332	2.21
551.785	-0.19
552.238	-4.49
552.691	-0.49
553.144	-2.49
553.596	-1.09
554.049	-12.29
554.502	-0.89
554.955	-3.59
555.407	-7.79
555.86	-8.79
556.313	1.21
556.765	-2.89
557.218	2.61
557.67	-1.49
558.123	-3.29
558.576	-3.09
559.028	-3.89
559.48	-7.39
559.933	-0.39
560.385	-0.19
560.838	-6.49
561.29	-5.69
561.742	1.71
562.195	-2.99
562.647	-8.09
563.099	7.71
563.551	-2.99
564.004	0.81
564.456	-0.59
564.908	-2.79
565.36	-7.39
565.812	0.41
566.264	-5.29
566.716	-3.49
567.168	-3.99
567.62	1.51
568.072	-4.19
568.524	0.41
568.976	-4.19
569.428	-7.19
569.88	-4.89
570.332	-7.99
570.784	-4.89
571.235	-9.39
571.687	-2.99
572.139	1.51
572.59	-2.59
573.042	-9.19
573.494	-2.59
573.945	-2.69
574.397	-8.29
574.849	-2.49
575.3	-6.19
575.752	-2.69
576.203	-0.79
576.655	1.51
577.106	-9.79
577.557	-2.59
578.009	1.61
578.46	-10.69
578.912	-1.29
579.363	-8.79
579.814	1.41
580.265	-10.79
580.717	-7.59
581.168	-8.09
581.619	-1.39
582.07	-1.09
582.521	-1.79
582.972	-8.29
583.423	-6.09
583.875	-7.79
584.326	-4.59
584.777	-3.99
585.227	-4.19
585.678	-3.79
586.129	-6.79
586.58	-0.79
587.031	-0.89
587.482	2.21
587.933	1.31
588.384	-8.79
588.834	-2.99
589.285	4.71
589.736	-0.39
590.186	-8.59
590.637	-1.69
591.088	-0.99
591.538	0.81
591.989	-0.59
592.439	3.21
592.89	6.21
593.34	-4.09
593.791	-6.89
594.241	-6.99
594.692	-5.49
595.142	-6.49
595.593	-7.19
596.043	0.01
596.493	-4.79
596.943	-8.29
597.394	-5.09
597.844	-14.49
598.294	-11.69
598.744	-4.49
599.195	-5.09
599.645	1.41
600.095	-4.59
600.545	-2.89
600.995	-3.69
601.445	-1.19
601.895	-10.99
602.345	0.31
602.795	2.51
603.245	-6.89
603.695	0.91
604.145	-5.99
604.594	-1.89
605.044	-8.79
605.494	-13.69
605.944	-13.89
606.393	-6.29
606.843	-6.19
607.293	-4.49
607.743	-10.19
608.192	-8.69
608.642	1.41
609.091	1.61
609.541	4.51
609.99	-1.19
610.44	4.21
610.889	-8.99
611.339	-7.99
611.788	-7.29
612.238	-6.59
612.687	2.81
613.136	0.61
613.586	-5.09
614.035	-6.49
614.484	-8.39
614.933	-11.39
615.383	-7.69
615.832	-0.99
616.281	-2.39
616.73	-5.19
617.179	-1.09
617.628	-1.59
618.077	-1.49
618.526	-4.99
618.975	-1.99
619.424	-1.09
619.873	-7.69
620.322	1.91
620.771	-8.99
621.22	-3.29
621.669	0.71
622.118	-5.09
622.567	-3.99
623.015	-8.19
623.464	0.71
623.913	1.01
624.361	-11.09
624.81	-8.69
625.259	-5.69
625.707	2.41
626.156	-4.69
626.604	-0.69
627.053	0.21
627.501	-6.99
627.95	-8.09
628.398	-4.89
628.847	-4.99
629.295	-9.59
629.744	0.41
630.192	-5.99
630.64	-2.89
631.089	-2.79
631.537	-1.79
631.985	-9.99
632.433	-1.59
632.881	0.21
633.33	-3.89
633.778	-2.39
634.226	0.11
634.674	-5.99
635.122	-10.29
635.57	-3.19
636.018	-4.79
636.466	0.81
636.914	-6.59
637.362	0.91
637.81	6.21
638.258	-0.79
638.705	-7.39
639.153	0.81
639.601	-10.59
640.049	-11.79
640.497	-9.39
640.944	3.11
641.392	-8.59
641.84	-6.19
642.287	-1.19
642.735	-10.99
643.182	-0.29
643.63	-7.49
644.078	-8.19
644.525	-2.39
644.973	-3.69
645.42	-2.49
645.867	-4.79
646.315	0.41
646.762	-4.19
647.21	-6.59
647.657	-12.59
648.104	4.11
648.551	-2.29
648.999	-6.09
649.446	-5.59
649.893	-13.19
650.34	-3.19
650.787	-1.29
651.234	1.01
651.682	-3.19
652.129	-9.39
652.576	-6.49
653.023	3.11
653.47	-0.39
653.917	-5.69
654.363	-2.19
654.81	-8.69
655.257	-7.99
655.704	-4.99
656.151	-7.99
656.598	-4.09
657.044	-4.99
657.491	1.91
657.938	-8.19
658.385	-4.39
658.831	-2.39
659.278	5.01
659.724	-7.09
660.171	-3.39
660.618	-8.09
661.064	0.61
661.511	-5.19
661.957	-0.79
662.404	-3.29
662.85	3.31
663.296	-0.29
663.743	2.11
664.189	-4.09
664.635	-2.99
665.082	-6.19
665.528	-8.09
665.974	-3.19
666.42	-4.79
666.867	0.91
667.313	-7.19
667.759	4.61
668.205	0.41
668.651	-7.19
669.097	-5.79
669.543	-9.29
669.989	-3.39
670.435	-1.39
670.881	-8.39
671.327	1.51
671.773	4.21
672.219	-2.49
672.665	-0.29
673.11	-9.99
673.556	-3.69
674.002	1.11
674.448	-5.99
674.893	0.81
675.339	-7.19
675.785	-2.89
676.23	3.01
676.676	-6.99
677.122	-2.19
677.567	-2.09
678.013	1.61
678.458	-5.09
678.904	-1.59
679.349	-11.79
679.794	-3.69
680.24	-2.79
680.685	-5.09
681.131	-4.89
681.576	-1.09
682.021	-0.99
682.466	-12.99
682.912	-5.49
683.357	-11.39
683.802	4.71
684.247	-6.19
684.692	-1.69
685.137	-10.99
685.583	-1.89
686.028	-1.79
686.473	-6.29
686.918	-3.19
687.363	0.01
687.807	3.41
688.252	-4.59
688.697	5.21
689.142	-1.09
689.587	-4.09
690.032	-16.79
690.477	-0.49
690.921	-3.09
691.366	-0.69
691.811	-4.29
692.255	1.31
692.7	2.01
693.145	-3.19
693.589	1.21
694.034	4.51
694.478	-4.89
694.923	10.01
695.367	-6.39
695.812	-2.39
696.256	-3.99
696.701	-4.19
697.145	0.71
697.59	-3.09
698.034	-12.09
698.478	4.31
698.922	-3.69
699.367	-2.69
699.811	-1.09
700.255	-3.09
700.699	5.11
701.143	-8.19
701.588	0.81
702.032	-5.29
702.476	-10.59
702.92	-2.69
703.364	-6.99
703.808	-3.29
704.252	3.31
704.696	-5.39
705.14	-6.09
705.584	-9.59
706.027	-2.39
706.471	-8.49
706.915	-7.39
707.359	-7.89
707.803	-8.39
708.246	-14.09
708.69	0.71
709.134	2.11
709.577	1.71
710.021	0.71
710.465	-2.59
710.908	-4.59
711.352	-5.99
711.795	-3.09
712.239	-1.99
712.682	-11.59
713.126	-6.39
713.569	-7.99
714.012	-2.09
714.456	-3.29
714.899	-6.29
715.342	-4.39
715.786	-6.29
716.229	-4.69
716.672	-2.09
717.115	-6.49
717.558	-2.29
718.002	-3.09
718.445	-1.49
718.888	4.31
719.331	-5.89
719.774	-4.49
720.217	-1.19
720.66	0.61
721.103	-1.79
721.546	-2.09
721.989	0.21
722.432	-7.29
722.874	-4.69
723.317	-6.69
723.76	-3.79
724.203	5.21
724.645	-2.19
725.088	-2.69
725.531	-4.39
725.974	-8.29
726.416	-4.19
726.859	-5.69
727.301	-12.29
727.744	-3.59
728.187	-2.39
728.629	0.31
729.071	-6.39
729.514	-1.49
729.956	-6.19
730.399	-3.49
730.841	-3.99
731.283	-7.99
731.726	-5.09
732.168	-7.09
732.61	-2.99
733.053	-0.59
733.495	-4.19
733.937	-3.49
734.379	-0.89
734.821	-3.79
735.263	-7.89
735.705	-8.19
736.148	-3.19
736.59	-3.39
737.032	-9.79
737.474	-4.39
737.916	-4.39
738.357	-4.79
738.799	-3.39
739.241	-2.79
739.683	-5.39
740.125	-3.19
740.567	-6.49
741.008	-0.39
741.45	2.71
741.892	0.01
742.334	2.41
742.775	-13.39
743.217	-4.89
743.658	-1.69
744.1	-3.39
744.542	-3.39
744.983	2.61
745.425	-11.19
745.866	-2.49
746.307	3.51
746.749	-4.79
747.19	1.21
747.632	1.01
748.073	-12.89
748.514	1.31
748.956	-5.39
749.397	-2.89
749.838	-0.29
750.279	-1.19
750.72	-8.89
751.162	0.31
751.603	-3.49
752.044	-2.49
752.485	-10.39
752.926	-4.39
753.367	-7.99
753.808	-2.29
754.249	-3.79
754.69	-6.09
755.131	0.51
755.572	-7.99
756.013	-10.69
756.453	-5.79
756.894	-0.79
757.335	-3.79
757.776	-7.79
758.216	-3.29
758.657	-5.19
759.098	-4.69
759.538	-6.59
759.979	-10.99
760.42	-13.99
760.86	-11.49
761.301	-0.39
761.741	-4.89
762.182	-6.09
762.622	-6.49
763.063	-9.19
763.503	-4.69
763.943	-8.09
764.384	6.31
764.824	0.01
765.264	-5.89
765.705	5.21
766.145	-13.69
766.585	-2.89
767.025	-10.09
767.465	-14.79
767.906	-0.89
768.346	2.61
768.786	-8.29
769.226	0.11
769.666	2.51
770.106	-11.69
770.546	-3.79
770.986	-1.49
771.426	-12.39
771.866	-0.99
772.306	-1.69
772.745	-3.99
773.185	-2.29
773.625	-0.69
774.065	-3.39
774.505	-1.89
774.944	-0.79
775.384	-4.69
775.824	-8.09
776.263	-5.29
776.703	-6.09
777.142	-1.79
777.582	-2.79
778.021	-5.79
778.461	-2.89
778.9	1.11
779.34	3.61
779.779	-3.49
780.219	-9.59
780.658	-12.09
781.097	-5.79
781.537	1.21
781.976	-7.09
782.415	-8.89
782.855	-6.49
783.294	-6.99
783.733	-4.59
784.172	-2.89
784.611	-4.59
785.05	-2.89
785.489	-2.99
785.928	-3.69
786.367	-0.69
786.806	-4.89
787.245	-3.29
787.684	-1.89
788.123	1.51
788.562	-1.89
789.001	-3.59
789.44	-5.29
789.879	-4.99
790.317	-6.29
790.756	-1.09
791.195	-3.49
791.634	-6.49
792.072	1.41
792.511	-3.19
792.95	-6.79
793.388	-0.79
793.827	0.31
794.265	-8.09
794.704	-6.49
795.142	-1.49
795.581	3.71
796.019	0.71
796.458	-2.39
796.896	-12.59
797.334	-7.49
797.773	-6.49
798.211	3.51
798.649	-2.09
799.087	-4.59
799.526	-9.29
799.964	-10.39
800.402	7.11
800.84	-7.59
801.278	-10.69
801.716	-7.29
802.154	-1.99
802.592	-2.09
803.03	-5.59
803.468	-11.49
803.906	-3.39
804.344	6.31
804.782	-3.69
805.22	-4.89
805.658	-4.99
806.096	-2.79
806.533	0.01
806.971	-1.29
807.409	-6.69
807.847	-5.49
808.284	-9.39
808.722	-2.89
809.16	-1.69
809.597	-2.59
810.035	-3.79
810.472	-3.09
810.91	2.01
811.347	0.31
811.785	2.91
812.222	-0.39
812.66	-1.19
813.097	1.91
813.535	-4.79
813.972	-3.19
814.409	-4.89
814.846	-4.09
815.284	10.91
815.721	-3.59
816.158	0.31
816.595	-5.79
817.032	-1.49
817.47	2.21
817.907	0.81
818.344	-1.99
818.781	-1.19
819.218	-7.89
819.655	-0.69
820.092	0.01
820.529	-14.99
820.966	-4.99
821.403	-8.79
821.839	-1.89
822.276	-1.19
822.713	2.21
823.15	-6.89
823.587	-6.59
824.023	1.41
824.46	-10.49
824.897	-0.99
825.333	-5.39
825.77	1.51
826.206	-2.39
826.643	0.11
827.08	-8.09
827.516	-10.29
827.953	-4.19
828.389	-3.19
828.825	-1.59
829.262	-1.69
829.698	-8.39
830.135	-7.99
830.571	-5.09
831.007	2.31
831.443	-4.09
831.88	-3.39
832.316	-2.89
832.752	-0.69
833.188	-2.09
833.624	-6.89
834.06	-2.49
834.497	-2.29
834.933	2.81
835.369	0.01
835.805	-13.09
836.241	-3.79
836.677	-8.79
837.112	-9.39
837.548	-10.09
837.984	-7.89
838.42	-8.59
838.856	-4.59
839.292	-4.99
839.727	0.01
840.163	-3.19
840.599	-0.69
841.034	0.01
841.47	0.91
841.906	-5.29
842.341	-7.49
842.777	-4.99
843.212	-2.29
843.648	0.41
844.083	-0.89
844.519	-3.59
844.954	-5.89
845.39	-5.99
845.825	-5.69
846.261	-9.79
846.696	-2.29
847.131	-0.79
847.566	1.11
848.002	-4.89
848.437	-1.19
848.872	1.11
849.307	-7.39
849.742	-3.99
850.177	-3.29
850.613	3.61
851.048	-13.29
851.483	-5.29
851.918	-14.19
852.353	-14.39
852.788	-10.79
853.223	-1.79
853.657	-0.19
854.092	3.81
854.527	-4.89
854.962	-6.09
855.397	-5.79
855.832	3.21
856.266	-3.79
856.701	0.01
857.136	-2.29
857.57	-4.79
858.005	-3.39
858.44	2.41
858.874	-7.49
859.309	-1.49
859.743	-11.09
860.178	-4.99
860.612	-10.39
861.047	-0.59
861.481	-3.19
861.915	-8.69
862.35	-0.99
862.784	-6.79
863.218	1.11
863.653	-1.19
864.087	2.91
864.521	2.11
864.955	-5.19
865.39	0.81
865.824	-0.49
866.258	2.11
866.692	-0.29
867.126	-5.09
867.56	-5.59
867.994	-4.29
868.428	-10.79
868.862	-5.79
869.296	-0.79
869.73	-0.59
870.164	-5.69
870.598	-7.39
871.031	-8.09
871.465	-4.99
871.899	-3.29
872.333	-5.99
872.766	-2.59
873.2	0.81
873.634	-0.19
874.067	-2.29
874.501	-4.49
874.935	-1.59
875.368	-7.99
875.802	-6.19
876.235	-3.09
876.669	-2.89
877.102	0.11
877.535	-1.39
877.969	-7.19
878.402	1.51
878.836	-13.59
879.269	-3.29
879.702	-1.59
880.135	-5.49
880.569	2.71
881.002	2.81
881.435	-5.39
881.868	-8.79
882.301	-3.59
882.734	-4.89
883.167	2.21
883.601	0.01
884.034	-0.99
884.467	-4.19
884.899	-6.29
885.332	-6.79
885.765	-5.69
886.198	-2.19
886.631	4.01
887.064	1.31
887.497	-1.19
887.929	0.81
888.362	-7.19
888.795	-2.59
889.228	1.91
889.66	-0.19
890.093	-3.49
890.526	-2.39
890.958	-0.19
891.391	-2.79
891.823	-4.79
892.256	-11.29
892.688	-4.89
893.121	-4.99
893.553	1.71
893.985	4.31
894.418	0.21
894.85	-3.09
895.282	-5.19
895.715	-3.19
896.147	-2.19
896.579	-0.09
897.011	-4.79
897.444	5.61
897.876	-8.09
898.308	-0.79
898.74	0.41
899.172	-9.99
899.604	7.11
900.036	2.31
900.468	-6.79
900.9	-2.39
901.332	1.61
901.764	-7.89
902.196	0.71
902.628	-0.09
903.06	-0.59
903.491	-1.49
903.923	-6.19
904.355	-8.69
904.787	-0.89
905.218	-2.79
905.65	-5.89
906.082	-10.59
906.513	-8.29
906.945	-12.19
907.376	-5.59
907.808	-0.59
908.239	-3.49
908.671	-4.79
909.102	-1.59
909.534	-2.79
909.965	4.11
910.397	-0.69
910.828	3.91
911.259	-3.99
911.691	-3.19
912.122	-2.69
912.553	-3.99
912.984	-0.89
913.415	4.91
913.847	2.41
914.278	-7.09
914.709	-4.29
915.14	1.71
915.571	1.21
916.002	-6.09
916.433	-1.99
916.864	-2.79
917.295	-2.99
917.726	-2.29
918.157	-5.89
918.587	-1.49
919.018	-2.59
919.449	-2.49
919.88	5.11
920.311	0.41
920.741	-7.19
921.172	-11.99
921.603	-7.09
922.033	-8.29
922.464	3.51
922.895	-6.69
923.325	-2.29
923.756	-4.09
924.186	-6.49
924.617	-0.39
925.047	-4.69
925.478	-7.29
925.908	-4.69
926.338	-5.29
926.769	-2.29
927.199	2.61
927.629	-1.99
928.06	-2.89
928.49	-3.09
928.92	-4.79
929.35	0.51
929.78	-2.99
930.21	2.21
930.641	-2.49
931.071	-1.89
931.501	-1.79
931.931	-2.79
932.361	3.61
932.791	-5.39
933.221	-3.69
933.651	-5.69
934.08	-1.49
934.51	6.81
934.94	-6.39
935.37	-2.99
935.8	-1.19
936.229	-3.49
936.659	2.81
937.089	-8.49
937.519	-5.49
937.948	6.21
938.378	1.91
938.807	-2.99
939.237	-2.29
939.666	1.61
940.096	-10.59
940.525	-7.89
940.955	-0.89
941.384	-2.59
941.814	-10.39
942.243	-2.59
942.672	-0.69
943.102	-4.49
943.531	-5.99
943.96	-0.19
944.39	-1.19
944.819	-6.39
945.248	2.61
945.677	-2.39
946.106	-3.19
946.535	2.31
946.964	-1.69
947.393	-0.39
947.822	-2.49
948.251	-10.99
948.68	-1.19
949.109	5.21
949.538	2.61
949.967	-8.99
950.396	-2.09
950.825	-6.59
951.254	-6.49
951.682	-3.89
952.111	-5.29
952.54	3.41
952.969	-8.69
953.397	-10.89
953.826	-4.09
954.254	-12.99
954.683	-1.99
955.112	-13.29
955.54	0.01
955.969	-3.79
956.397	2.41
956.826	-5.99
957.254	-2.79
957.682	-5.49
958.111	-1.49
958.539	0.61
958.967	0.61
959.396	-2.09
959.824	3.31
960.252	-2.29
960.68	-6.49
961.109	-9.39
961.537	-7.59
961.965	-6.19
962.393	-4.49
962.821	-2.39
963.249	-6.99
963.677	-3.29
964.105	-2.29
964.533	-7.69
964.961	-1.09
965.389	-0.29
965.817	-2.39
966.245	-5.19
966.672	-0.59
967.1	-7.29
967.528	3.71
967.956	-0.79
968.383	-4.59
968.811	-7.99
969.239	-2.69
969.666	-7.99
970.094	-3.79
970.522	-4.89
970.949	-8.59
971.377	-9.09
971.804	-3.29
972.232	0.11
972.659	0.61
973.087	-3.09
973.514	-7.39
973.941	-7.29
974.369	-1.39
974.796	0.01
975.223	-2.39
975.651	-6.49
976.078	-3.09
976.505	-2.59
976.932	-4.09
977.359	-4.69
977.786	0.21
978.214	-5.29
978.641	-6.89
979.068	-8.29
979.495	-1.29
979.922	-0.19
980.349	1.01
980.776	4.21
981.202	-3.79
981.629	0.91
982.056	0.41
982.483	-6.09
982.91	-2.39
983.337	-5.39
983.763	2.51
984.19	-10.39
984.617	-3.19
985.043	-5.99
985.47	-5.99
985.897	-7.69
986.323	-7.69
986.75	2.91
987.176	-3.29
987.603	-2.79
988.029	1.21
988.456	-0.79
988.882	2.51
989.308	-8.79
989.735	-9.09
990.161	-4.29
990.587	-4.19
991.014	5.01
991.44	5.11
991.866	-3.59
992.292	-4.89
992.719	-6.19
993.145	5.31
993.571	-13.59
993.997	-8.29
994.423	-4.29
994.849	-7.89
995.275	-2.69
995.701	-4.29
996.127	-2.39
996.553	0.81
996.979	-4.39
997.405	-3.79
997.83	-6.09
998.256	-8.09
998.682	-9.99
999.108	-4.29
999.534	-6.49
999.959	-6.39
1000.385	-7.59
1000.811	-2.49
1001.236	-1.79
1001.662	-9.39
1002.087	-10.49
1002.513	-1.99
1002.938	-2.69
1003.364	-1.29
1003.789	-4.69
1004.215	3.11
1004.64	-3.59
1005.066	-2.69
1005.491	0.31
1005.916	-1.29
1006.342	-4.49
1006.767	-7.79
1007.192	-2.39
1007.617	-4.29
1008.042	-2.69
1008.468	-5.69
1008.893	-2.09
1009.318	-5.39
1009.743	-7.89
1010.168	-4.79
1010.593	-4.99
1011.018	-18.99
1011.443	-3.29
1011.868	-2.69
1012.293	-7.69
1012.718	-8.09
1013.143	-0.79
1013.567	1.61
1013.992	-2.99
1014.417	-12.29
1014.842	-3.89
1015.267	-9.59
1015.691	-7.39
1016.116	-1.79
1016.541	-1.49
1016.965	1.01
1017.39	-0.79
1017.814	-3.99
1018.239	-1.89
1018.663	-4.79
1019.088	-6.39
1019.512	-3.39
1019.937	1.91
1020.361	-10.39
1020.785	-14.79
1021.21	-6.99
1021.634	-5.79
1022.058	1.61
1022.483	4.51
1022.907	-3.99
1023.331	-8.29
1023.755	-2.19
1024.179	-7.49
1024.604	-5.39
1025.028	-6.89
1025.452	-7.39
1025.876	1.71
1026.3	0.81
1026.724	-6.39
1027.148	-7.19
1027.572	-4.49
1027.996	-3.89
1028.42	2.31
1028.843	-0.19
1029.267	-3.09
1029.691	-1.09
1030.115	-6.69
1030.539	-9.19
1030.962	-3.69
1031.386	-9.69
1031.81	0.41
1032.233	-3.69
1032.657	1.41
1033.08	-2.99
1033.504	4.31
1033.927	-0.69
1034.351	-6.09
1034.774	-2.89
1035.198	-3.89
1035.621	-8.89
1036.045	-12.39
1036.468	1.71
1036.891	-4.39
1037.315	-10.99
1037.738	-8.69
1038.161	-1.09
1038.584	-9.89
1039.008	-2.69
1039.431	-2.89
1039.854	1.31
1040.277	-4.39
1040.7	-12.79
1041.123	-6.49
1041.546	-11.09
1041.969	-8.99
1042.392	-3.99
1042.815	2.11
1043.238	6.61
1043.661	6.91
1044.084	0.01
1044.507	1.61
1044.93	-8.39
1045.352	-8.49
1045.775	-4.29
1046.198	-0.99
1046.621	-5.19
1047.043	6.31
1047.466	7.71
1047.889	-4.99
1048.311	-3.69
1048.734	-1.89
1049.156	-0.49
1049.579	-5.89
1050.001	0.41
1050.424	-8.39
1050.846	-3.49
1051.269	-1.99
1051.691	-8.49
1052.113	-4.79
1052.536	1.21
1052.958	-2.79
1053.38	-4.99
1053.802	-8.89
1054.225	1.51
1054.647	-7.29
1055.069	-4.79
1055.491	-3.69
1055.913	-9.69
1056.335	0.81
1056.757	-3.09
1057.179	0.71
1057.601	-3.39
1058.023	-10.29
1058.445	-7.59
1058.867	-5.19
1059.289	-1.19
1059.711	-6.09
1060.133	2.21
1060.555	-4.69
1060.976	-1.39
1061.398	-3.19
1061.82	-9.19
1062.241	-5.99
1062.663	-6.69
1063.085	-0.39
1063.506	1.01
1063.928	-0.19
1064.35	6.71
1064.771	-10.69
1065.193	-3.39
1065.614	-14.19
1066.035	4.41
1066.457	0.31
1066.878	1.41
1067.3	-5.69
1067.721	-3.69
1068.142	-10.29
1068.564	-5.59
1068.985	-1.69
1069.406	-3.99
1069.827	-8.69
1070.248	-0.59
1070.67	-8.19
1071.091	-6.59
1071.512	-8.79
1071.933	-10.19
1072.354	-10.49
1072.775	-2.29
1073.196	-9.59
1073.617	-2.59
1074.038	-9.59
1074.459	-4.49
1074.88	-10.49
1075.3	1.21
1075.721	-4.09
1076.142	2.41
1076.563	-3.39
1076.983	-10.19
1077.404	-10.89
1077.825	-6.29
1078.246	-3.79
1078.666	-11.69
1079.087	-3.29
1079.507	-8.69
1079.928	1.81
1080.348	-1.39
1080.769	-5.29
1081.189	4.11
1081.61	-5.09
1082.03	-3.59
1082.451	-2.59
1082.871	-5.59
1083.291	-6.89
1083.711	-8.09
1084.132	-6.69
1084.552	-1.89
1084.972	0.41
1085.392	-8.99
1085.813	-7.29
1086.233	-6.69
1086.653	-1.29
1087.073	-3.09
1087.493	-9.69
1087.913	-1.39
1088.333	-5.19
1088.753	-2.79
1089.173	3.91
1089.593	3.61
1090.013	3.51
1090.433	1.81
1090.852	-3.49
1091.272	5.11
1091.692	-1.29
1092.112	-2.39
1092.531	-10.59
1092.951	-13.09
1093.371	1.81
1093.79	-0.89
1094.21	-6.49
1094.63	-3.29
1095.049	-3.19
1095.469	-3.19
1095.888	-2.99
1096.308	-1.29
1096.727	6.31
1097.146	-6.39
1097.566	4.31
1097.985	-10.89
1098.405	2.01
1098.824	-9.79
1099.243	-3.19
1099.662	-6.29
1100.082	-0.49
1100.501	3.11
1100.92	-2.39
1101.339	-0.59
1101.758	-3.89
