Data from 20171114-ORNL-Ar_H_NY_Subt18_08-03-11-016.txt Node
Date: Tue Nov 14 08:03:11 EST 2017
User: Ender
Spectrometer: HR+D1039
Trigger mode: 0
Integration Time (sec): 2.730000E-2
Scans to average: 10
Electric dark correction enabled: true
Nonlinearity correction enabled: false
Boxcar width: 0
XAxis mode: Wavelengths
Number of Pixels in Spectrum: 2048
>>>>>Begin Spectral Data<<<<<
187.836	-5.98
188.309	-5.98
188.782	-5.98
189.255	-1.98
189.728	-1.08
190.201	7.52
190.674	0.22
191.147	0.72
191.619	-7.48
192.092	1.72
192.565	4.72
193.038	2.62
193.511	0.22
193.984	0.52
194.456	-1.48
194.929	0.22
195.402	-4.08
195.874	3.52
196.347	-7.58
196.82	-7.08
197.292	6.32
197.765	-0.38
198.237	-2.78
198.71	5.42
199.182	-2.28
199.655	0.82
200.127	-0.38
200.6	-2.98
201.072	-6.98
201.544	-4.78
202.017	-1.08
202.489	8.22
202.961	3.72
203.433	-0.28
203.906	-9.38
204.378	-7.78
204.85	-5.08
205.322	-14.68
205.794	-7.08
206.266	-3.68
206.739	-9.28
207.211	1.62
207.683	-8.48
208.155	-7.58
208.627	-4.98
209.099	-2.08
209.57	-10.28
210.042	-7.38
210.514	-5.88
210.986	-2.08
211.458	-13.08
211.93	-7.68
212.402	-1.38
212.873	-8.38
213.345	-11.78
213.817	-10.58
214.288	-3.38
214.76	-9.68
215.232	-7.98
215.703	-1.48
216.175	-8.48
216.646	-5.38
217.118	-14.48
217.589	-1.08
218.061	-7.18
218.532	-2.18
219.004	-9.28
219.475	-4.38
219.946	-5.58
220.418	-7.78
220.889	1.52
221.36	-4.78
221.832	-6.68
222.303	-10.18
222.774	-2.88
223.245	-15.28
223.717	-1.28
224.188	-4.58
224.659	-6.48
225.13	-12.48
225.601	-9.28
226.072	4.52
226.543	-6.58
227.014	-0.78
227.485	-4.68
227.956	-11.18
228.427	-3.48
228.898	-4.68
229.369	6.52
229.839	-4.98
230.31	-6.78
230.781	-3.28
231.252	-5.68
231.722	-3.98
232.193	-5.28
232.664	0.42
233.135	-4.28
233.605	-3.88
234.076	-10.08
234.546	-4.58
235.017	1.62
235.487	-7.68
235.958	-12.58
236.428	-9.58
236.899	-2.38
237.369	-6.08
237.84	-8.58
238.31	-3.28
238.78	-4.88
239.251	-11.18
239.721	-8.38
240.191	-4.38
240.662	-8.68
241.132	-5.18
241.602	-5.58
242.072	-3.78
242.542	3.52
243.013	-4.48
243.483	0.72
243.953	1.82
244.423	-6.98
244.893	-6.88
245.363	-5.38
245.833	-5.18
246.303	-6.08
246.773	2.12
247.243	-3.18
247.712	-10.28
248.182	-1.28
248.652	-4.88
249.122	-14.68
249.592	-5.68
250.061	-0.68
250.531	7.62
251.001	-8.48
251.471	1.52
251.94	1.32
252.41	-1.18
252.879	-9.68
253.349	3.12
253.818	-3.98
254.288	1.82
254.757	-8.38
255.227	-9.88
255.696	-2.68
256.166	-0.68
256.635	3.42
257.105	-0.68
257.574	-4.08
258.043	-2.78
258.513	-8.28
258.982	-4.68
259.451	-11.78
259.92	-1.68
260.389	2.02
260.859	8.62
261.328	-7.48
261.797	-9.38
262.266	-6.38
262.735	-0.88
263.204	-8.48
263.673	-8.38
264.142	-1.28
264.611	-11.78
265.08	-8.68
265.549	-7.88
266.018	-3.38
266.487	-7.78
266.955	-14.48
267.424	-6.58
267.893	-0.88
268.362	-1.78
268.83	-8.78
269.299	-1.28
269.768	-5.78
270.236	-9.88
270.705	-8.18
271.174	-7.98
271.642	-6.08
272.111	-4.28
272.579	-6.38
273.048	-4.68
273.516	-5.78
273.985	-2.48
274.453	-3.58
274.922	3.22
275.39	-9.28
275.858	-11.08
276.327	-1.78
276.795	8.02
277.263	-10.58
277.731	1.02
278.2	-7.98
278.668	-3.58
279.136	-3.68
279.604	-5.28
280.072	-4.08
280.54	-0.58
281.008	-0.98
281.477	3.02
281.945	-1.48
282.413	-2.68
282.881	-2.88
283.348	-7.08
283.816	-3.38
284.284	-7.38
284.752	3.92
285.22	-7.68
285.688	-3.78
286.156	-4.98
286.623	2.72
287.091	-3.68
287.559	-1.48
288.026	-3.18
288.494	-2.38
288.962	-9.18
289.429	-11.78
289.897	-3.98
290.364	-5.38
290.832	-1.18
291.3	-10.58
291.767	-2.78
292.234	-3.28
292.702	-4.88
293.169	-3.38
293.637	-0.48
294.104	0.12
294.571	-9.48
295.039	-10.28
295.506	-5.68
295.973	-4.58
296.44	-4.58
296.908	-14.58
297.375	-10.18
297.842	-3.98
298.309	-1.48
298.776	-3.58
299.243	-5.08
299.71	-8.58
300.177	-1.68
300.644	-2.68
301.111	-6.08
301.578	-2.18
302.045	-3.48
302.512	0.72
302.979	-3.78
303.446	-8.28
303.913	-7.68
304.379	-10.78
304.846	1.22
305.313	-7.38
305.78	-0.48
306.246	-0.68
306.713	-6.98
307.18	-7.28
307.646	-2.28
308.113	-2.98
308.579	-9.28
309.046	-6.38
309.512	-5.78
309.979	-15.88
310.445	-2.48
310.912	-3.98
311.378	-3.68
311.845	-3.38
312.311	-8.48
312.777	-5.18
313.244	2.02
313.71	0.72
314.176	-5.48
314.642	-6.48
315.109	-7.58
315.575	-3.18
316.041	-1.78
316.507	-10.08
316.973	-3.28
317.439	-4.58
317.905	-2.48
318.371	-6.78
318.837	-4.28
319.303	-3.98
319.769	-6.18
320.235	-2.78
320.701	-7.08
321.167	-0.58
321.633	-9.48
322.099	-2.78
322.564	4.22
323.03	-8.88
323.496	-7.08
323.962	-3.88
324.427	-9.48
324.893	-3.68
325.359	-5.98
325.824	-3.88
326.29	-10.58
326.755	-3.88
327.221	-7.18
327.686	-5.88
328.152	-6.18
328.617	-5.38
329.083	1.72
329.548	-2.28
330.014	-4.48
330.479	-5.68
330.944	-1.98
331.41	-3.38
331.875	2.42
332.34	-7.48
332.805	-1.98
333.271	0.12
333.736	-13.98
334.201	-8.68
334.666	-7.48
335.131	-1.68
335.596	-0.38
336.061	-5.38
336.526	-12.78
336.991	-4.68
337.456	2.42
337.921	-2.78
338.386	-11.88
338.851	-2.48
339.316	-3.38
339.781	-5.68
340.246	0.92
340.711	-6.78
341.175	-4.68
341.64	-11.08
342.105	-2.78
342.569	3.62
343.034	-5.68
343.499	-2.48
343.963	-9.18
344.428	1.12
344.893	0.82
345.357	-6.58
345.822	-4.98
346.286	-5.78
346.751	-4.18
347.215	-9.78
347.679	-10.08
348.144	-0.98
348.608	-2.78
349.073	-7.98
349.537	-5.68
350.001	-8.48
350.465	1.72
350.93	-9.38
351.394	-0.88
351.858	-9.08
352.322	2.92
352.786	-8.08
353.25	-4.88
353.715	-1.28
354.179	-6.68
354.643	-5.78
355.107	-4.48
355.571	-2.08
356.035	-5.98
356.498	-1.88
356.962	-6.48
357.426	-1.68
357.89	-2.48
358.354	-4.78
358.818	0.02
359.281	-10.28
359.745	-5.58
360.209	-4.98
360.673	-7.88
361.136	-4.88
361.6	3.32
362.064	-2.38
362.527	-1.38
362.991	0.32
363.454	-3.88
363.918	-8.38
364.381	-7.08
364.845	-3.98
365.308	-0.08
365.772	-6.38
366.235	2.02
366.698	-9.28
367.162	-5.08
367.625	-5.28
368.088	-6.78
368.552	-5.08
369.015	-6.78
369.478	-4.78
369.941	0.32
370.404	-7.08
370.867	-1.28
371.331	0.42
371.794	-6.58
372.257	-4.68
372.72	-0.28
373.183	0.52
373.646	-12.88
374.109	-9.58
374.572	-10.08
375.035	-8.18
375.497	-8.78
375.96	-3.38
376.423	-3.78
376.886	-4.68
377.349	-4.08
377.811	-10.28
378.274	-5.48
378.737	-5.08
379.199	-8.78
379.662	-2.28
380.125	-4.88
380.587	-8.88
381.05	-11.68
381.512	-7.98
381.975	1.92
382.437	-8.48
382.9	-12.18
383.362	-5.98
383.825	-9.58
384.287	-8.88
384.75	-8.38
385.212	-7.38
385.674	-0.98
386.136	-2.48
386.599	-7.78
387.061	-4.18
387.523	-2.88
387.985	-10.08
388.447	-1.78
388.91	-2.68
389.372	-2.28
389.834	-0.68
390.296	-5.68
390.758	-3.18
391.22	-3.08
391.682	-5.58
392.144	0.02
392.606	0.22
393.068	0.42
393.529	1.42
393.991	-2.68
394.453	-5.98
394.915	-9.78
395.377	-6.08
395.838	-5.08
396.3	-0.78
396.762	1.72
397.224	-4.08
397.685	-3.98
398.147	-4.68
398.608	-4.18
399.07	-11.48
399.531	-4.88
399.993	-4.68
400.454	1.52
400.916	-3.28
401.377	-5.88
401.839	-1.98
402.3	-6.18
402.762	-8.98
403.223	-7.78
403.684	-4.88
404.145	-14.28
404.607	-8.18
405.068	0.52
405.529	-4.28
405.99	-8.58
406.451	-15.48
406.913	-4.78
407.374	-6.78
407.835	-6.48
408.296	-2.48
408.757	-8.48
409.218	-5.28
409.679	-3.78
410.14	-0.28
410.601	-0.88
411.062	-1.68
411.522	-6.98
411.983	-8.48
412.444	-13.48
412.905	-4.78
413.366	-2.78
413.826	-3.88
414.287	-7.88
414.748	-8.18
415.208	-2.88
415.669	-5.38
416.13	3.82
416.59	-0.48
417.051	-0.18
417.511	-6.78
417.972	-8.68
418.432	-6.38
418.893	3.92
419.353	0.42
419.814	-5.58
420.274	-3.48
420.734	-5.78
421.195	-7.08
421.655	-7.58
422.115	-7.78
422.576	-2.38
423.036	0.82
423.496	4.12
423.956	-4.68
424.416	-2.58
424.876	-3.78
425.336	-5.88
425.797	0.82
426.257	-2.18
426.717	-11.38
427.177	10.12
427.637	-8.48
428.097	-8.58
428.556	-9.38
429.016	-0.98
429.476	-6.08
429.936	-0.78
430.396	-9.18
430.856	-3.08
431.315	3.12
431.775	-3.08
432.235	5.42
432.694	-5.98
433.154	3.62
433.614	-4.68
434.073	-7.38
434.533	4.22
434.993	-12.18
435.452	0.32
435.912	-8.18
436.371	-0.48
436.83	-5.08
437.29	0.12
437.749	1.22
438.209	-8.48
438.668	-5.88
439.127	-5.48
439.587	-2.48
440.046	-4.08
440.505	-4.18
440.964	-3.48
441.424	-4.48
441.883	-10.08
442.342	6.42
442.801	-3.48
443.26	-2.68
443.719	-3.78
444.178	-2.98
444.637	-10.28
445.096	-5.28
445.555	-3.48
446.014	-5.38
446.473	4.82
446.932	-2.78
447.391	-8.28
447.849	-7.68
448.308	-8.68
448.767	-11.98
449.226	-2.38
449.685	0.72
450.143	5.62
450.602	-7.28
451.061	-7.98
451.519	0.32
451.978	-5.88
452.436	-5.48
452.895	-4.18
453.353	-1.58
453.812	1.22
454.27	5.12
454.729	-4.68
455.187	-4.18
455.646	-4.98
456.104	-2.48
456.562	-3.98
457.021	-9.68
457.479	-6.88
457.937	1.32
458.395	-4.08
458.854	-9.28
459.312	-11.08
459.77	-7.08
460.228	-4.68
460.686	-15.98
461.144	0.12
461.602	0.72
462.06	-7.98
462.518	-0.68
462.976	1.52
463.434	-9.08
463.892	-7.68
464.35	-0.18
464.808	0.62
465.266	-11.48
465.724	-0.88
466.181	-2.98
466.639	-1.58
467.097	3.92
467.555	-8.98
468.012	-3.38
468.47	-4.18
468.928	-0.48
469.385	-1.28
469.843	-1.18
470.3	2.02
470.758	1.72
471.215	-2.18
471.673	-5.28
472.13	-6.78
472.588	0.52
473.045	-1.88
473.503	-2.98
473.96	-8.58
474.417	-5.78
474.875	-7.98
475.332	-4.08
475.789	-5.58
476.246	-5.98
476.704	-5.88
477.161	-4.78
477.618	-8.78
478.075	-2.78
478.532	-0.48
478.989	-5.08
479.446	-2.98
479.903	3.72
480.36	-0.88
480.817	-11.48
481.274	0.22
481.731	0.92
482.188	-11.58
482.645	4.92
483.102	-6.68
483.558	-6.38
484.015	0.02
484.472	0.72
484.929	-0.58
485.385	-0.78
485.842	-2.98
486.299	-9.78
486.755	0.22
487.212	1.12
487.668	-5.18
488.125	-9.18
488.582	2.32
489.038	1.32
489.494	-5.78
489.951	-4.98
490.407	-11.48
490.864	-7.18
491.32	0.52
491.776	-2.98
492.233	-1.18
492.689	-13.28
493.145	-0.98
493.602	-4.38
494.058	2.02
494.514	-6.28
494.97	7.42
495.426	-6.98
495.882	-8.78
496.338	-4.38
496.794	6.52
497.251	-9.78
497.707	-1.68
498.163	1.02
498.618	-3.78
499.074	-2.28
499.53	-1.78
499.986	-4.98
500.442	-9.08
500.898	-8.38
501.354	-8.08
501.809	-9.48
502.265	-1.38
502.721	-4.18
503.177	4.02
503.632	-1.48
504.088	0.82
504.543	-0.58
504.999	-2.28
505.455	-1.98
505.91	-8.88
506.366	3.02
506.821	-4.58
507.277	-7.18
507.732	-11.68
508.187	-7.98
508.643	-4.28
509.098	-4.18
509.553	-5.18
510.009	-2.98
510.464	-8.08
510.919	0.02
511.375	-1.18
511.83	-1.58
512.285	-5.28
512.74	6.32
513.195	6.92
513.65	-5.38
514.105	-5.28
514.56	-6.78
515.015	-2.48
515.47	-1.48
515.925	-8.98
516.38	-1.68
516.835	6.22
517.29	-4.08
517.745	-4.28
518.2	-3.58
518.655	-8.38
519.109	-2.88
519.564	1.62
520.019	-8.18
520.474	-10.98
520.928	-5.48
521.383	-0.38
521.838	-11.08
522.292	-0.88
522.747	1.12
523.201	8.22
523.656	-2.38
524.11	0.62
524.565	-8.68
525.019	-11.58
525.474	2.42
525.928	-5.38
526.382	-3.48
526.837	-10.08
527.291	-7.98
527.745	-7.98
528.2	-5.88
528.654	-7.68
529.108	-9.58
529.562	-4.18
530.016	-2.68
530.47	-2.48
530.925	-5.58
531.379	-8.88
531.833	-7.48
532.287	-4.68
532.741	-3.88
533.195	-7.08
533.649	-2.68
534.103	-1.28
534.556	-11.28
535.01	-5.68
535.464	-4.68
535.918	-0.08
536.372	1.52
536.826	-1.78
537.279	-6.48
537.733	-2.18
538.187	-10.38
538.64	-10.48
539.094	-5.38
539.548	-6.08
540.001	-10.98
540.455	-11.68
540.908	-2.68
541.362	-3.08
541.815	-6.98
542.269	-0.68
542.722	-9.08
543.175	-8.38
543.629	-9.18
544.082	2.52
544.536	-9.38
544.989	-4.18
545.442	-5.18
545.895	-4.48
546.349	-1.78
546.802	-4.48
547.255	0.12
547.708	-3.28
548.161	-9.48
548.614	-9.38
549.067	-1.38
549.52	-6.18
549.973	-1.88
550.426	2.32
550.879	-9.28
551.332	-5.18
551.785	3.12
552.238	-8.28
552.691	-2.78
553.144	-9.88
553.596	-6.98
554.049	-10.28
554.502	-4.08
554.955	-5.38
555.407	-7.98
555.86	-8.28
556.313	-4.58
556.765	-8.18
557.218	-3.38
557.67	-2.78
558.123	-1.48
558.576	-5.08
559.028	-2.88
559.48	-13.38
559.933	-2.18
560.385	-2.98
560.838	-4.58
561.29	-4.48
561.742	-1.28
562.195	-9.48
562.647	-2.58
563.099	0.52
563.551	0.02
564.004	3.62
564.456	-1.88
564.908	-10.78
565.36	0.02
565.812	2.22
566.264	-7.98
566.716	-3.28
567.168	-7.28
567.62	0.72
568.072	-4.18
568.524	-3.28
568.976	-3.18
569.428	-9.88
569.88	-2.78
570.332	-3.38
570.784	-8.18
571.235	-6.38
571.687	-8.88
572.139	0.92
572.59	-4.68
573.042	-7.28
573.494	-6.48
573.945	-3.78
574.397	-7.18
574.849	-1.98
575.3	0.22
575.752	-6.08
576.203	-3.38
576.655	-4.78
577.106	-10.08
577.557	-3.58
578.009	3.12
578.46	-3.28
578.912	-5.18
579.363	-12.58
579.814	-6.98
580.265	-6.88
580.717	-5.48
581.168	-11.08
581.619	-7.68
582.07	2.42
582.521	-9.88
582.972	-4.88
583.423	-5.78
583.875	-3.38
584.326	-6.18
584.777	-12.98
585.227	-6.68
585.678	-7.18
586.129	-6.18
586.58	3.32
587.031	-9.58
587.482	-2.58
587.933	-0.68
588.384	-8.28
588.834	-1.58
589.285	-2.88
589.736	-2.98
590.186	-10.38
590.637	-6.08
591.088	-5.88
591.538	-0.48
591.989	2.42
592.439	-2.18
592.89	-1.98
593.34	-6.78
593.791	-7.78
594.241	-8.68
594.692	3.02
595.142	-4.98
595.593	-6.18
596.043	-6.38
596.493	-1.18
596.943	-4.18
597.394	-11.18
597.844	-12.68
598.294	-5.18
598.744	-0.98
599.195	-0.68
599.645	0.92
600.095	-10.48
600.545	-4.58
600.995	-4.28
601.445	-6.48
601.895	-10.58
602.345	3.92
602.795	-1.58
603.245	-11.38
603.695	-4.48
604.145	-7.48
604.594	-1.38
605.044	-1.18
605.494	-9.88
605.944	-8.48
606.393	1.42
606.843	-5.18
607.293	1.52
607.743	-8.58
608.192	-10.58
608.642	-0.78
609.091	-1.18
609.541	-2.58
609.99	-2.88
610.44	-4.08
610.889	-8.48
611.339	-4.68
611.788	-12.88
612.238	-2.88
612.687	6.62
613.136	-3.38
613.586	4.42
614.035	-9.88
614.484	-8.08
614.933	-6.48
615.383	3.02
615.832	-0.28
616.281	-0.58
616.73	0.32
617.179	-0.28
617.628	2.82
618.077	-5.48
618.526	-2.38
618.975	-5.28
619.424	0.62
619.873	-5.08
620.322	-1.98
620.771	-14.18
621.22	-2.68
621.669	-1.88
622.118	-1.28
622.567	-4.98
623.015	-12.28
623.464	-2.88
623.913	-1.18
624.361	-11.78
624.81	-8.58
625.259	-5.68
625.707	-2.58
626.156	-4.28
626.604	-3.38
627.053	-6.38
627.501	-14.28
627.95	-6.38
628.398	-9.28
628.847	-2.88
629.295	-8.38
629.744	-4.78
630.192	4.42
630.64	1.12
631.089	-4.88
631.537	0.92
631.985	-11.58
632.433	-0.08
632.881	-9.98
633.33	-5.18
633.778	-5.68
634.226	-11.98
634.674	-3.58
635.122	-10.98
635.57	3.92
636.018	-3.08
636.466	5.82
636.914	-8.58
637.362	-5.18
637.81	-1.68
638.258	-2.98
638.705	-3.08
639.153	-2.38
639.601	-11.48
640.049	-11.48
640.497	-3.28
640.944	4.62
641.392	-10.18
641.84	-2.48
642.287	-2.58
642.735	-6.08
643.182	-7.58
643.63	-2.88
644.078	-8.98
644.525	0.22
644.973	-5.58
645.42	-1.38
645.867	-3.08
646.315	1.62
646.762	-1.68
647.21	1.62
647.657	-6.78
648.104	2.72
648.551	-5.38
648.999	-4.18
649.446	1.02
649.893	-5.98
650.34	-7.38
650.787	-7.78
651.234	8.82
651.682	-2.38
652.129	-11.28
652.576	-9.68
653.023	1.52
653.47	3.82
653.917	-2.88
654.363	-2.98
654.81	-7.98
655.257	-14.18
655.704	-1.88
656.151	-5.48
656.598	-1.28
657.044	-6.58
657.491	-10.18
657.938	-16.28
658.385	-3.98
658.831	-3.88
659.278	9.92
659.724	-8.08
660.171	-2.98
660.618	-9.38
661.064	-4.18
661.511	-2.88
661.957	-6.28
662.404	-11.48
662.85	0.62
663.296	0.62
663.743	-5.38
664.189	-1.78
664.635	-3.58
665.082	-8.78
665.528	-3.58
665.974	-6.78
666.42	-4.28
666.867	0.62
667.313	-4.18
667.759	-1.68
668.205	-0.98
668.651	3.52
669.097	0.72
669.543	-10.68
669.989	-6.48
670.435	0.02
670.881	-5.18
671.327	-2.48
671.773	1.62
672.219	-4.08
672.665	-1.98
673.11	-6.98
673.556	-7.58
674.002	-2.38
674.448	-4.88
674.893	-7.68
675.339	-0.08
675.785	-2.98
676.23	-3.18
676.676	-7.08
677.122	-6.98
677.567	-2.48
678.013	-2.58
678.458	-6.78
678.904	-5.18
679.349	-13.58
679.794	-4.88
680.24	-3.68
680.685	-3.88
681.131	-3.98
681.576	1.32
682.021	-4.38
682.466	-0.88
682.912	-13.98
683.357	-9.38
683.802	-4.18
684.247	-3.88
684.692	-0.28
685.137	-13.48
685.583	-2.38
686.028	-10.18
686.473	-7.48
686.918	-10.18
687.363	4.62
687.807	-1.78
688.252	-3.88
688.697	-0.08
689.142	-0.58
689.587	-7.58
690.032	-15.58
690.477	-4.08
690.921	-6.68
691.366	-3.68
691.811	-4.28
692.255	1.62
692.7	3.72
693.145	-1.58
693.589	-1.28
694.034	-1.28
694.478	-3.28
694.923	3.82
695.367	-5.78
695.812	0.32
696.256	-0.98
696.701	-5.28
697.145	-1.28
697.59	-3.88
698.034	-2.78
698.478	2.92
698.922	-1.98
699.367	2.52
699.811	5.22
700.255	-2.08
700.699	-5.78
701.143	-11.28
701.588	-4.78
702.032	-1.58
702.476	-9.28
702.92	-1.58
703.364	-6.58
703.808	2.92
704.252	2.02
704.696	-7.38
705.14	-6.58
705.584	-10.38
706.027	-1.68
706.471	-9.08
706.915	-8.98
707.359	-4.38
707.803	-14.48
708.246	-4.98
708.69	-0.68
709.134	6.32
709.577	0.62
710.021	6.32
710.465	-4.18
710.908	-3.58
711.352	-6.98
711.795	-3.98
712.239	-2.78
712.682	-13.78
713.126	-8.88
713.569	-0.68
714.012	8.72
714.456	-2.18
714.899	-6.78
715.342	-9.68
715.786	-8.28
716.229	-0.18
716.672	-1.48
717.115	-5.48
717.558	1.92
718.002	-5.08
718.445	-5.78
718.888	-3.68
719.331	-8.58
719.774	-3.48
720.217	-4.38
720.66	-8.38
721.103	-5.48
721.546	-0.98
721.989	0.82
722.432	-12.48
722.874	-0.08
723.317	-7.88
723.76	-6.08
724.203	-5.48
724.645	1.92
725.088	-2.68
725.531	-12.38
725.974	-12.48
726.416	-11.28
726.859	-4.08
727.301	-8.38
727.744	-5.28
728.187	-9.48
728.629	-1.48
729.071	-10.88
729.514	-6.18
729.956	-4.28
730.399	-9.88
730.841	1.92
731.283	-1.38
731.726	-7.08
732.168	-8.38
732.61	-5.48
733.053	-0.68
733.495	-9.98
733.937	-7.38
734.379	-3.28
734.821	-0.88
735.263	-4.98
735.705	-2.28
736.148	-4.28
736.59	0.72
737.032	-7.68
737.474	-6.08
737.916	-10.38
738.357	-2.68
738.799	-4.28
739.241	-8.28
739.683	-12.88
740.125	-5.78
740.567	-8.78
741.008	-0.38
741.45	1.32
741.892	1.32
742.334	0.32
742.775	-7.88
743.217	-6.78
743.658	-6.08
744.1	-3.18
744.542	-5.18
744.983	2.32
745.425	-2.18
745.866	0.42
746.307	-0.68
746.749	-3.58
747.19	-2.38
747.632	-3.28
748.073	-12.38
748.514	0.42
748.956	-5.88
749.397	-2.88
749.838	-3.18
750.279	-12.28
750.72	-7.18
751.162	-1.28
751.603	-2.98
752.044	-2.18
752.485	-9.58
752.926	-1.88
753.367	-4.48
753.808	-1.58
754.249	-2.58
754.69	-4.68
755.131	-6.58
755.572	-8.38
756.013	-11.68
756.453	-2.18
756.894	-1.38
757.335	-6.28
757.776	-7.88
758.216	-3.58
758.657	-7.68
759.098	-5.08
759.538	-8.38
759.979	-11.88
760.42	-17.28
760.86	-9.28
761.301	-0.78
761.741	-1.38
762.182	-6.28
762.622	-2.48
763.063	-11.98
763.503	-1.68
763.943	-7.58
764.384	4.72
764.824	-1.98
765.264	-12.98
765.705	-0.38
766.145	-10.68
766.585	-9.28
767.025	-13.18
767.465	-8.48
767.906	-5.28
768.346	-1.58
768.786	-7.08
769.226	-2.98
769.666	-4.08
770.106	-6.88
770.546	-7.08
770.986	-8.28
771.426	-1.98
771.866	-5.48
772.306	-2.58
772.745	-8.68
773.185	-8.38
773.625	2.72
774.065	-12.58
774.505	-3.88
774.944	-2.68
775.384	-8.08
775.824	-5.08
776.263	-5.08
776.703	-2.08
777.142	-9.18
777.582	-6.78
778.021	-12.38
778.461	-5.68
778.9	-4.08
779.34	5.92
779.779	-11.88
780.219	-14.28
780.658	-9.08
781.097	-7.38
781.537	-9.18
781.976	-11.08
782.415	-5.78
782.855	-7.38
783.294	-7.18
783.733	0.72
784.172	-1.48
784.611	-3.08
785.05	-6.78
785.489	-2.08
785.928	-2.58
786.367	1.42
786.806	-6.58
787.245	-4.08
787.684	-9.68
788.123	3.52
788.562	-7.58
789.001	-5.38
789.44	-3.38
789.879	-8.98
790.317	-2.78
790.756	1.62
791.195	-4.08
791.634	-7.48
792.072	2.12
792.511	-4.88
792.95	-0.18
793.388	-6.58
793.827	-2.08
794.265	-6.08
794.704	-5.78
795.142	5.32
795.581	3.52
796.019	-0.98
796.458	-2.88
796.896	-5.58
797.334	-8.88
797.773	-0.98
798.211	4.62
798.649	3.72
799.087	0.32
799.526	-4.68
799.964	0.42
800.402	3.02
800.84	-5.88
801.278	-10.58
801.716	-9.88
802.154	-2.88
802.592	-2.98
803.03	-4.38
803.468	-5.98
803.906	-4.88
804.344	0.62
804.782	-1.98
805.22	-8.18
805.658	-10.68
806.096	-0.58
806.533	0.12
806.971	-0.58
807.409	-4.48
807.847	-11.48
808.284	-4.38
808.722	-9.88
809.16	-5.98
809.597	-0.28
810.035	-2.38
810.472	-6.58
810.91	-4.88
811.347	-0.68
811.785	-0.08
812.222	-2.28
812.66	-0.78
813.097	-4.38
813.535	-9.58
813.972	-5.78
814.409	-3.58
814.846	-5.88
815.284	2.32
815.721	-7.58
816.158	-2.78
816.595	-8.58
817.032	0.02
817.47	0.52
817.907	4.02
818.344	-6.38
818.781	-7.98
819.218	-14.68
819.655	-13.48
820.092	-3.18
820.529	-11.98
820.966	-10.08
821.403	-7.68
821.839	-4.48
822.276	-7.68
822.713	1.12
823.15	-5.48
823.587	-5.48
824.023	-4.58
824.46	-3.28
824.897	2.72
825.333	-5.08
825.77	1.02
826.206	-7.58
826.643	0.32
827.08	-4.18
827.516	-3.28
827.953	1.02
828.389	3.92
828.825	-0.48
829.262	-7.78
829.698	-8.48
830.135	-9.18
830.571	-3.68
831.007	-2.68
831.443	-0.88
831.88	-6.08
832.316	-0.38
832.752	-6.18
833.188	-6.08
833.624	-6.48
834.06	-1.68
834.497	-1.28
834.933	3.02
835.369	2.92
835.805	-9.68
836.241	-6.88
836.677	-5.28
837.112	-9.38
837.548	-13.98
837.984	-9.08
838.42	-10.28
838.856	-6.68
839.292	-5.38
839.727	-10.98
840.163	-6.18
840.599	-1.38
841.034	0.12
841.47	1.32
841.906	-7.18
842.341	-8.38
842.777	-4.28
843.212	-8.18
843.648	1.22
844.083	-5.88
844.519	-8.78
844.954	-5.08
845.39	-12.38
845.825	-4.78
846.261	-3.18
846.696	-6.98
847.131	-1.68
847.566	1.82
848.002	-8.78
848.437	-8.78
848.872	-3.08
849.307	-8.78
849.742	-4.08
850.177	-9.38
850.613	-9.18
851.048	-9.68
851.483	-7.08
851.918	-7.18
852.353	-8.18
852.788	-5.88
853.223	-2.08
853.657	6.12
854.092	-3.28
854.527	-1.28
854.962	-6.18
855.397	-9.98
855.832	0.22
856.266	-8.18
856.701	1.12
857.136	-6.08
857.57	-5.88
858.005	-8.48
858.44	7.62
858.874	-8.68
859.309	-3.48
859.743	-15.08
860.178	-4.38
860.612	-7.38
861.047	1.22
861.481	0.42
861.915	-6.58
862.35	-2.48
862.784	-8.38
863.218	0.02
863.653	-4.68
864.087	-3.38
864.521	-0.18
864.955	-1.88
865.39	-4.98
865.824	-4.38
866.258	-3.48
866.692	-0.88
867.126	-6.28
867.56	-7.08
867.994	-5.28
868.428	-8.18
868.862	-4.38
869.296	2.72
869.73	-0.98
870.164	-5.28
870.598	-8.68
871.031	-4.18
871.465	-8.68
871.899	-0.38
872.333	-4.28
872.766	-4.78
873.2	-5.48
873.634	4.12
874.067	-3.98
874.501	-2.88
874.935	-3.48
875.368	-6.08
875.802	-7.28
876.235	-0.08
876.669	-4.68
877.102	-7.48
877.535	-2.98
877.969	-5.68
878.402	0.02
878.836	-7.58
879.269	-5.08
879.702	1.52
880.135	-1.88
880.569	-3.38
881.002	-3.18
881.435	-5.08
881.868	-7.48
882.301	-6.28
882.734	-9.88
883.167	1.02
883.601	-1.28
884.034	-4.68
884.467	-5.98
884.899	-3.38
885.332	-3.88
885.765	-2.98
886.198	-9.48
886.631	-3.58
887.064	-5.88
887.497	-7.18
887.929	3.72
888.362	-1.08
888.795	-9.78
889.228	-2.38
889.66	-5.88
890.093	-6.28
890.526	-11.68
890.958	-1.88
891.391	-2.08
891.823	2.12
892.256	-7.98
892.688	-8.28
893.121	-1.18
893.553	-1.58
893.985	1.82
894.418	-6.88
894.85	-14.88
895.282	-6.28
895.715	-4.98
896.147	-2.58
896.579	-3.78
897.011	-4.68
897.444	-7.48
897.876	-8.98
898.308	0.52
898.74	-1.58
899.172	-5.58
899.604	-1.08
900.036	0.22
900.468	-6.38
900.9	-4.98
901.332	-4.08
901.764	-8.68
902.196	-2.78
902.628	-5.08
903.06	-11.68
903.491	-5.78
903.923	-8.08
904.355	-4.48
904.787	-1.48
905.218	-7.58
905.65	-4.78
906.082	-9.98
906.513	-13.78
906.945	-5.78
907.376	-8.98
907.808	0.32
908.239	-2.88
908.671	-1.38
909.102	-1.88
909.534	-1.48
909.965	-3.88
910.397	-6.28
910.828	-4.78
911.259	1.52
911.691	-4.98
912.122	-4.68
912.553	-6.58
912.984	-0.28
913.415	3.32
913.847	4.82
914.278	-8.88
914.709	-2.08
915.14	-3.48
915.571	-5.38
916.002	-11.48
916.433	-1.78
916.864	-2.38
917.295	-8.18
917.726	-3.38
918.157	-8.98
918.587	1.92
919.018	-3.98
919.449	3.22
919.88	-3.28
920.311	5.82
920.741	-15.88
921.172	-8.38
921.603	-8.68
922.033	-9.58
922.464	5.82
922.895	-10.28
923.325	2.92
923.756	-7.18
924.186	-6.08
924.617	-3.08
925.047	-13.08
925.478	-15.08
925.908	-4.28
926.338	-4.18
926.769	-6.08
927.199	9.82
927.629	-7.78
928.06	-1.38
928.49	0.82
928.92	-2.78
929.35	-8.78
929.78	1.02
930.21	-7.58
930.641	-2.18
931.071	-0.18
931.501	-4.38
931.931	-4.28
932.361	-1.68
932.791	-9.98
933.221	-5.98
933.651	-10.38
934.08	-5.28
934.51	4.32
934.94	-11.08
935.37	-3.78
935.8	0.92
936.229	-2.48
936.659	-0.38
937.089	-9.28
937.519	-2.58
937.948	3.32
938.378	-0.98
938.807	-11.08
939.237	-4.68
939.666	4.12
940.096	-9.18
940.525	-8.28
940.955	-8.68
941.384	-0.58
941.814	-13.08
942.243	-8.88
942.672	3.42
943.102	-7.28
943.531	-2.78
943.96	-1.08
944.39	-1.48
944.819	-3.48
945.248	-0.28
945.677	-0.08
946.106	0.42
946.535	-1.58
946.964	-1.08
947.393	-1.28
947.822	-10.98
948.251	-8.98
948.68	3.12
949.109	2.72
949.538	-3.48
949.967	-3.08
950.396	-3.08
950.825	-6.68
951.254	-4.28
951.682	-10.38
952.111	1.02
952.54	4.22
952.969	-13.98
953.397	-10.48
953.826	-1.68
954.254	-13.28
954.683	-0.18
955.112	-4.58
955.54	-3.38
955.969	-7.98
956.397	-9.18
956.826	-8.78
957.254	-4.68
957.682	-3.38
958.111	-1.58
958.539	-6.48
958.967	-2.08
959.396	-6.28
959.824	-8.18
960.252	-1.78
960.68	-7.88
961.109	-10.58
961.537	-10.68
961.965	-2.48
962.393	-1.88
962.821	-3.48
963.249	-9.18
963.677	-4.18
964.105	-7.48
964.533	-7.98
964.961	-5.18
965.389	-0.18
965.817	-5.28
966.245	-4.58
966.672	-5.38
967.1	-13.88
967.528	-5.08
967.956	-2.18
968.383	1.22
968.811	-9.98
969.239	-7.18
969.666	-9.78
970.094	-0.28
970.522	-2.68
970.949	-7.08
971.377	0.12
971.804	-4.48
972.232	-5.38
972.659	-6.08
973.087	-8.88
973.514	-5.08
973.941	-8.38
974.369	2.12
974.796	-0.58
975.223	-6.58
975.651	-0.18
976.078	0.12
976.505	-6.78
976.932	-6.68
977.359	-6.08
977.786	1.72
978.214	-13.98
978.641	-10.58
979.068	-3.88
979.495	-4.88
979.922	-5.08
980.349	-7.68
980.776	1.82
981.202	-6.08
981.629	-2.48
982.056	1.22
982.483	-7.18
982.91	1.42
983.337	-6.78
983.763	4.82
984.19	-3.28
984.617	-4.48
985.043	-8.28
985.47	-4.88
985.897	-10.58
986.323	-5.38
986.75	-0.98
987.176	-5.98
987.603	-2.58
988.029	-5.68
988.456	-4.68
988.882	-2.28
989.308	-9.48
989.735	-7.18
990.161	3.32
990.587	-2.78
991.014	1.52
991.44	8.52
991.866	-5.58
992.292	-2.28
992.719	-2.88
993.145	-3.58
993.571	-9.18
993.997	0.62
994.423	-6.48
994.849	-8.28
995.275	-7.48
995.701	-0.08
996.127	-6.18
996.553	2.52
996.979	-1.48
997.405	-0.48
997.83	-6.08
998.256	-3.98
998.682	-10.08
999.108	-10.08
999.534	-2.08
999.959	-2.48
1000.385	-8.98
1000.811	0.12
1001.236	-10.88
1001.662	-17.18
1002.087	-11.18
1002.513	-8.28
1002.938	-4.38
1003.364	-4.78
1003.789	-2.98
1004.215	0.72
1004.64	-4.98
1005.066	2.32
1005.491	-2.48
1005.916	-0.18
1006.342	-3.88
1006.767	-12.48
1007.192	1.42
1007.617	-9.48
1008.042	-7.98
1008.468	-1.08
1008.893	-8.88
1009.318	1.02
1009.743	-8.88
1010.168	-3.38
1010.593	-7.68
1011.018	-9.28
1011.443	-3.58
1011.868	-3.18
1012.293	-5.28
1012.718	-6.08
1013.143	0.22
1013.567	-1.48
1013.992	-10.08
1014.417	-11.78
1014.842	-1.88
1015.267	-3.48
1015.691	-2.28
1016.116	4.42
1016.541	-1.98
1016.965	-0.28
1017.39	0.32
1017.814	-5.18
1018.239	-5.48
1018.663	-7.28
1019.088	-10.38
1019.512	-2.38
1019.937	1.32
1020.361	-6.18
1020.785	-10.68
1021.21	-6.68
1021.634	-4.88
1022.058	-2.78
1022.483	1.62
1022.907	-3.78
1023.331	-6.68
1023.755	-7.18
1024.179	-4.88
1024.604	-6.38
1025.028	-2.28
1025.452	-5.68
1025.876	-5.88
1026.3	4.62
1026.724	-9.88
1027.148	-5.88
1027.572	-8.58
1027.996	-2.58
1028.42	1.22
1028.843	-5.98
1029.267	-3.28
1029.691	-7.08
1030.115	-5.28
1030.539	-4.68
1030.962	-5.68
1031.386	-8.08
1031.81	-0.08
1032.233	-0.18
1032.657	-4.98
1033.08	-3.68
1033.504	-3.98
1033.927	3.82
1034.351	-5.68
1034.774	-2.28
1035.198	-2.08
1035.621	-6.98
1036.045	-5.58
1036.468	4.52
1036.891	-11.38
1037.315	-7.88
1037.738	-11.68
1038.161	1.12
1038.584	-9.68
1039.008	1.12
1039.431	-1.48
1039.854	-3.38
1040.277	-3.68
1040.7	-12.48
1041.123	-5.78
1041.546	-4.48
1041.969	0.02
1042.392	-7.78
1042.815	-7.68
1043.238	-4.28
1043.661	-3.68
1044.084	-10.88
1044.507	-7.68
1044.93	-11.28
1045.352	-5.78
1045.775	-2.28
1046.198	-4.38
1046.621	-1.28
1047.043	-4.78
1047.466	4.22
1047.889	-7.28
1048.311	-6.98
1048.734	-1.58
1049.156	-0.68
1049.579	-3.58
1050.001	-6.88
1050.424	-4.48
1050.846	-4.58
1051.269	-5.28
1051.691	-9.08
1052.113	-5.08
1052.536	-8.58
1052.958	-2.48
1053.38	-8.68
1053.802	-8.28
1054.225	-1.28
1054.647	-14.88
1055.069	-1.88
1055.491	-1.18
1055.913	-11.08
1056.335	6.72
1056.757	-5.48
1057.179	-5.78
1057.601	-6.38
1058.023	0.22
1058.445	-2.98
1058.867	-8.18
1059.289	-5.08
1059.711	-10.48
1060.133	-6.88
1060.555	-8.48
1060.976	-2.88
1061.398	-5.48
1061.82	-2.78
1062.241	-6.68
1062.663	-4.38
1063.085	-1.48
1063.506	0.42
1063.928	-2.88
1064.35	-5.58
1064.771	-17.78
1065.193	-7.28
1065.614	-14.38
1066.035	0.82
1066.457	-0.08
1066.878	3.82
1067.3	-4.38
1067.721	-8.78
1068.142	-6.38
1068.564	-4.68
1068.985	-11.18
1069.406	-1.58
1069.827	-7.08
1070.248	-3.78
1070.67	-7.08
1071.091	-5.28
1071.512	-2.48
1071.933	-8.48
1072.354	-14.58
1072.775	-6.58
1073.196	-12.48
1073.617	-1.98
1074.038	-11.88
1074.459	-3.08
1074.88	-3.28
1075.3	-6.58
1075.721	-10.98
1076.142	2.62
1076.563	-6.68
1076.983	-11.68
1077.404	-7.18
1077.825	-10.88
1078.246	-6.08
1078.666	-9.38
1079.087	-1.78
1079.507	-8.48
1079.928	1.32
1080.348	0.92
1080.769	-4.68
1081.189	1.22
1081.61	-1.08
1082.03	-6.08
1082.451	-4.78
1082.871	-2.68
1083.291	-9.08
1083.711	-9.88
1084.132	-0.98
1084.552	-3.88
1084.972	2.12
1085.392	-12.78
1085.813	-11.78
1086.233	-10.18
1086.653	-9.58
1087.073	-4.48
1087.493	-10.68
1087.913	-3.48
1088.333	-2.88
1088.753	-2.38
1089.173	-2.28
1089.593	-8.58
1090.013	-3.98
1090.433	-5.88
1090.852	-4.78
1091.272	-3.78
1091.692	-1.58
1092.112	-3.28
1092.531	-6.88
1092.951	-9.78
1093.371	1.92
1093.79	-1.18
1094.21	-5.08
1094.63	-10.58
1095.049	-9.08
1095.469	1.12
1095.888	-0.98
1096.308	-3.48
1096.727	8.92
1097.146	-4.68
1097.566	-2.48
1097.985	-1.68
1098.405	-1.58
1098.824	-5.58
1099.243	-4.38
1099.662	-7.58
1100.082	-2.98
1100.501	4.42
1100.92	-5.78
1101.339	-4.88
1101.758	-1.38
