Data from MSPlasma+Separation6_Subt14_10-14-42-269.txt Node
Date: Fri Jul 21 10:14:42 EDT 2017
User: Ender
Spectrometer: HR+D1039
Trigger mode: 0
Integration Time (sec): 6.430000E-3
Scans to average: 20
Electric dark correction enabled: true
Nonlinearity correction enabled: false
Boxcar width: 0
XAxis mode: Wavelengths
Number of Pixels in Spectrum: 2048
>>>>>Begin Spectral Data<<<<<
187.836	2.52
188.309	2.52
188.782	2.52
189.255	-1.23
189.728	2.22
190.201	-2.38
190.674	-1.23
191.147	-2.73
191.619	0.17
192.092	1.72
192.565	-2.33
193.038	3.87
193.511	3.32
193.984	-4.38
194.456	0.07
194.929	-0.33
195.402	-0.18
195.874	0.92
196.347	2.77
196.82	1.57
197.292	-2.98
197.765	-1.43
198.237	-0.28
198.71	-2.03
199.182	2.12
199.655	7.07
200.127	3.32
200.6	4.42
201.072	-2.68
201.544	0.52
202.017	1.02
202.489	-0.58
202.961	0.77
203.433	-3.08
203.906	-0.18
204.378	1.87
204.85	4.72
205.322	3.07
205.794	8.27
206.266	1.42
206.739	3.37
207.211	3.57
207.683	1.22
208.155	2.42
208.627	1.27
209.099	5.12
209.57	6.02
210.042	3.67
210.514	5.37
210.986	9.32
211.458	23.32
211.93	12.32
212.402	5.62
212.873	-2.33
213.345	1.37
213.817	3.02
214.288	3.22
214.76	5.32
215.232	3.47
215.703	3.17
216.175	3.32
216.646	5.87
217.118	3.87
217.589	0.02
218.061	4.42
218.532	0.37
219.004	8.42
219.475	12.47
219.946	29.27
220.418	36.37
220.889	24.82
221.36	8.97
221.832	10.57
222.303	9.42
222.774	7.07
223.245	6.72
223.717	3.27
224.188	9.77
224.659	7.72
225.13	3.12
225.601	8.82
226.072	8.62
226.543	6.12
227.014	4.32
227.485	9.52
227.956	9.62
228.427	14.27
228.898	15.87
229.369	11.32
229.839	8.52
230.31	16.82
230.781	15.47
231.252	19.57
231.722	27.27
232.193	35.92
232.664	44.42
233.135	61.82
233.605	67.92
234.076	51.02
234.546	41.32
235.017	49.47
235.487	49.97
235.958	51.32
236.428	68.42
236.899	114.37
237.369	124.07
237.84	93.87
238.31	121.22
238.78	113.02
239.251	116.27
239.721	121.02
240.191	91.92
240.662	56.07
241.132	43.57
241.602	54.07
242.072	75.07
242.542	90.87
243.013	64.87
243.483	55.82
243.953	42.12
244.423	44.32
244.893	48.07
245.363	59.57
245.833	59.27
246.303	60.92
246.773	82.72
247.243	83.37
247.712	102.37
248.182	110.87
248.652	118.52
249.122	169.37
249.592	320.22
250.061	474.57
250.531	752.87
251.001	580.57
251.471	478.32
251.94	369.82
252.41	196.37
252.879	138.52
253.349	107.42
253.818	93.47
254.288	76.47
254.757	78.07
255.227	102.02
255.696	82.02
256.166	71.62
256.635	80.02
257.105	101.72
257.574	128.37
258.043	132.57
258.513	237.27
258.982	309.22
259.451	211.72
259.92	212.47
260.389	201.02
260.859	141.07
261.328	165.32
261.797	239.42
262.266	207.82
262.735	94.87
263.204	59.52
263.673	53.07
264.142	46.72
264.611	46.87
265.08	52.37
265.549	59.72
266.018	53.17
266.487	53.22
266.955	48.42
267.424	61.17
267.893	54.42
268.362	55.92
268.83	59.47
269.299	58.92
269.768	70.07
270.236	84.07
270.705	87.47
271.174	83.12
271.642	98.22
272.111	118.92
272.579	181.37
273.048	285.32
273.516	363.07
273.985	363.72
274.453	277.82
274.922	164.72
275.39	107.47
275.858	99.27
276.327	80.22
276.795	82.42
277.263	99.72
277.731	146.52
278.2	334.57
278.668	445.87
279.136	343.27
279.604	196.82
280.072	106.62
280.54	88.07
281.008	83.92
281.477	79.32
281.945	77.92
282.413	87.47
282.881	84.97
283.348	91.47
283.816	97.97
284.284	106.57
284.752	97.27
285.22	98.47
285.688	107.77
286.156	168.57
286.623	479.87
287.091	937.57
287.559	495.72
288.026	189.37
288.494	119.77
288.962	102.17
289.429	89.17
289.897	91.77
290.364	77.07
290.832	84.12
291.3	89.27
291.767	94.22
292.234	98.52
292.702	99.82
293.169	103.57
293.637	107.87
294.104	109.57
294.571	103.07
295.039	98.92
295.506	96.77
295.973	111.22
296.44	99.42
296.908	113.07
297.375	135.47
297.842	127.42
298.309	109.57
298.776	107.57
299.243	111.97
299.71	105.97
300.177	106.77
300.644	120.42
301.111	134.57
301.578	119.02
302.045	107.92
302.512	107.97
302.979	107.62
303.446	122.52
303.913	121.57
304.379	131.17
304.846	145.17
305.313	157.02
305.78	174.77
306.246	207.32
306.713	222.77
307.18	195.87
307.646	219.07
308.113	195.47
308.579	157.47
309.046	155.62
309.512	154.87
309.979	151.07
310.445	133.12
310.912	143.87
311.378	138.52
311.845	141.67
312.311	135.97
312.777	141.62
313.244	145.07
313.71	146.62
314.176	163.52
314.642	188.22
315.109	214.12
315.575	199.67
316.041	186.42
316.507	180.27
316.973	202.52
317.439	193.47
317.905	205.97
318.371	204.92
318.837	192.07
319.303	200.82
319.769	185.37
320.235	215.57
320.701	236.57
321.167	249.32
321.633	296.97
322.099	395.22
322.564	517.57
323.03	411.52
323.496	299.42
323.962	283.07
324.427	261.32
324.893	230.02
325.359	229.72
325.824	198.87
326.29	215.57
326.755	215.72
327.221	212.42
327.686	226.97
328.152	209.52
328.617	202.72
329.083	199.97
329.548	215.67
330.014	225.02
330.479	233.82
330.944	273.62
331.41	303.47
331.875	284.37
332.34	306.02
332.805	343.07
333.271	434.37
333.736	552.87
334.201	511.27
334.666	394.07
335.131	438.92
335.596	353.62
336.061	374.42
336.526	376.32
336.991	322.72
337.456	353.07
337.921	284.87
338.386	239.47
338.851	225.62
339.316	210.37
339.781	205.67
340.246	211.62
340.711	208.72
341.175	214.47
341.64	214.17
342.105	225.77
342.569	237.92
343.034	254.52
343.499	260.27
343.963	248.12
344.428	246.92
344.893	258.52
345.357	260.47
345.822	252.77
346.286	256.72
346.751	268.67
347.215	262.22
347.679	273.27
348.144	289.62
348.608	287.37
349.073	298.47
349.537	321.42
350.001	319.52
350.465	299.02
350.93	291.52
351.394	298.82
351.858	290.47
352.322	308.22
352.786	312.62
353.25	301.67
353.715	301.52
354.179	319.47
354.643	340.27
355.107	348.27
355.571	366.47
356.035	377.87
356.498	363.22
356.962	399.82
357.426	383.82
357.89	347.92
358.354	327.72
358.818	321.17
359.281	336.62
359.745	353.82
360.209	345.27
360.673	347.47
361.136	348.37
361.6	352.27
362.064	376.37
362.527	378.17
362.991	370.57
363.454	377.87
363.918	375.32
364.381	373.47
364.845	360.87
365.308	357.12
365.772	364.92
366.235	367.82
366.698	384.82
367.162	446.47
367.625	499.57
368.088	422.52
368.552	387.37
369.015	394.77
369.478	421.62
369.941	426.77
370.404	441.87
370.867	463.77
371.331	471.37
371.794	472.42
372.257	526.47
372.72	559.32
373.183	529.72
373.646	537.72
374.109	535.42
374.572	595.02
375.035	683.37
375.497	540.02
375.96	451.52
376.423	431.47
376.886	427.67
377.349	439.37
377.811	439.97
378.274	453.42
378.737	461.02
379.199	467.92
379.662	483.32
380.125	517.72
380.587	574.92
381.05	611.02
381.512	612.57
381.975	586.07
382.437	582.92
382.9	573.87
383.362	578.67
383.825	604.67
384.287	762.72
384.75	845.77
385.212	752.62
385.674	624.92
386.136	568.37
386.599	567.52
387.061	596.02
387.523	620.37
387.985	624.02
388.447	651.27
388.91	722.52
389.372	872.22
389.834	817.02
390.296	685.77
390.758	700.47
391.22	727.72
391.682	911.02
392.144	1426.22
392.606	1329.77
393.068	756.42
393.529	680.97
393.991	658.32
394.453	649.67
394.915	685.92
395.377	856.57
395.838	1057.77
396.3	738.77
396.762	564.42
397.224	526.22
397.685	515.52
398.147	522.07
398.608	531.72
399.07	537.12
399.531	530.72
399.993	543.52
400.454	542.57
400.916	541.07
401.377	564.57
401.839	560.07
402.3	568.77
402.762	590.82
403.223	661.72
403.684	670.77
404.145	610.42
404.607	595.87
405.068	595.92
405.529	624.17
405.99	627.87
406.451	631.82
406.913	611.42
407.374	626.07
407.835	627.32
408.296	648.32
408.757	648.57
409.218	675.12
409.679	677.97
410.14	683.12
410.601	707.32
411.062	740.87
411.522	851.37
411.983	936.67
412.444	807.12
412.905	705.77
413.366	710.27
413.826	730.77
414.287	810.37
414.748	962.22
415.208	981.22
415.669	821.27
416.13	750.52
416.59	737.27
417.051	760.37
417.511	792.52
417.972	851.07
418.432	915.77
418.893	1025.07
419.353	969.27
419.814	749.02
420.274	678.12
420.734	680.02
421.195	729.52
421.655	749.22
422.115	727.07
422.576	700.07
423.036	696.02
423.496	731.27
423.956	762.02
424.416	808.92
424.876	918.82
425.336	916.77
425.797	912.37
426.257	915.72
426.717	858.17
427.177	800.07
427.637	823.77
428.097	867.32
428.556	913.17
429.016	988.62
429.476	987.77
429.936	958.67
430.396	941.27
430.856	945.02
431.315	976.87
431.775	1037.87
432.235	1106.42
432.694	1118.92
433.154	1049.22
433.614	1022.17
434.073	992.92
434.533	900.52
434.993	865.32
435.452	867.77
435.912	847.67
436.371	846.32
436.83	844.57
437.29	859.17
437.749	810.47
438.209	794.52
438.668	799.07
439.127	820.92
439.587	798.27
440.046	765.52
440.505	776.77
440.964	775.47
441.424	789.32
441.883	814.22
442.342	774.17
442.801	742.57
443.26	757.62
443.719	758.92
444.178	750.02
444.637	758.22
445.096	759.27
445.555	774.32
446.014	777.97
446.473	742.62
446.932	759.77
447.391	770.27
447.849	774.82
448.308	764.72
448.767	784.67
449.226	804.72
449.685	807.17
450.143	840.52
450.602	841.62
451.061	811.22
451.519	820.27
451.978	838.42
452.436	855.57
452.895	823.87
453.353	797.87
453.812	808.77
454.27	800.97
454.729	775.72
455.187	781.02
455.646	779.62
456.104	796.82
456.562	789.02
457.021	791.77
457.479	757.92
457.937	782.22
458.395	800.12
458.854	786.52
459.312	783.32
459.77	786.67
460.228	797.87
460.686	811.52
461.144	811.07
461.602	799.17
462.06	804.07
462.518	826.72
462.976	818.87
463.434	833.47
463.892	838.02
464.35	853.77
464.808	864.37
465.266	870.57
465.724	887.07
466.181	900.72
466.639	887.22
467.097	925.77
467.555	953.07
468.012	946.32
468.47	953.52
468.928	988.47
469.385	1017.57
469.843	1021.82
470.3	1016.47
470.758	1050.82
471.215	1058.22
471.673	1087.87
472.13	1119.87
472.588	1142.47
473.045	1141.52
473.503	1161.82
473.96	1218.42
474.417	1236.67
474.875	1290.12
475.332	1331.47
475.789	1354.57
476.246	1393.52
476.704	1468.72
477.161	1507.62
477.618	1549.32
478.075	1644.62
478.532	1778.22
478.989	1919.82
479.446	2132.67
479.903	2262.77
480.36	2494.82
480.817	2673.67
481.274	2867.82
481.731	3166.57
482.188	3409.37
482.645	3691.92
483.102	3901.02
483.558	4217.47
484.015	4426.92
484.472	4423.02
484.929	4276.57
485.385	4080.67
485.842	3979.17
486.299	3769.77
486.755	3376.92
487.212	3006.62
487.668	2692.22
488.125	2484.47
488.582	2282.47
489.038	2186.92
489.494	2102.12
489.951	2022.27
490.407	1974.62
490.864	1953.52
491.32	1903.52
491.776	1873.07
492.233	1864.27
492.689	1842.02
493.145	1819.67
493.602	1809.02
494.058	1835.42
494.514	1855.22
494.97	1869.32
495.426	1872.12
495.882	1894.92
496.338	1882.62
496.794	1957.87
497.251	1971.47
497.707	1962.47
498.163	1969.07
498.618	1976.12
499.074	1984.17
499.53	2020.52
499.986	2058.42
500.442	2082.22
500.898	2102.37
501.354	2117.42
501.809	2140.87
502.265	2160.77
502.721	2278.32
503.177	2329.27
503.632	2208.42
504.088	2223.62
504.543	2430.42
504.999	2266.62
505.455	2010.07
505.91	1910.67
506.366	1897.62
506.821	1903.02
507.277	1874.42
507.732	1889.72
508.187	1888.12
508.643	1896.02
509.098	1903.77
509.553	1929.27
510.009	1945.97
510.464	1980.02
510.919	1997.82
511.375	2030.47
511.83	2045.67
512.285	2081.87
512.74	2135.87
513.195	2165.17
513.65	2201.82
514.105	2242.47
514.56	2253.37
515.015	2290.57
515.47	2337.12
515.925	2309.22
516.38	2303.67
516.835	2286.47
517.29	2301.27
517.745	2287.77
518.2	2265.17
518.655	2195.97
519.109	2163.57
519.564	2137.32
520.019	2129.82
520.474	2090.87
520.928	2075.77
521.383	2075.32
521.838	2074.77
522.292	2050.97
522.747	2020.87
523.201	2027.17
523.656	1986.82
524.11	1990.52
524.565	1993.07
525.019	1992.72
525.474	2006.02
525.928	1998.67
526.382	1979.37
526.837	1958.87
527.291	1968.02
527.745	1947.62
528.2	1943.97
528.654	1935.82
529.108	1943.32
529.562	1943.67
530.016	1943.22
530.47	1953.62
530.925	1958.47
531.379	1954.32
531.833	1985.02
532.287	1976.12
532.741	1957.87
533.195	1959.37
533.649	1965.57
534.103	1958.77
534.556	1948.17
535.01	1956.17
535.464	1955.77
535.918	1962.62
536.372	1975.12
536.826	1963.42
537.279	1955.57
537.733	1938.02
538.187	1962.92
538.64	1960.72
539.094	1990.62
539.548	2011.82
540.001	1992.57
540.455	2001.82
540.908	2012.82
541.362	2043.37
541.815	2056.42
542.269	2092.77
542.722	2085.32
543.175	2113.12
543.629	2126.22
544.082	2145.32
544.536	2165.62
544.989	2161.07
545.442	2166.72
545.895	2162.32
546.349	2169.12
546.802	2170.92
547.255	2170.62
547.708	2187.97
548.161	2210.32
548.614	2206.97
549.067	2212.72
549.52	2212.22
549.973	2176.37
550.426	2164.12
550.879	2153.32
551.332	2138.12
551.785	2163.32
552.238	2185.87
552.691	2186.47
553.144	2216.07
553.596	2251.77
554.049	2282.07
554.502	2318.32
554.955	2363.92
555.407	2407.77
555.86	2372.32
556.313	2345.92
556.765	2328.67
557.218	2290.57
557.67	2293.82
558.123	2260.42
558.576	2245.22
559.028	2249.77
559.48	2275.12
559.933	2266.67
560.385	2201.47
560.838	2122.52
561.29	2070.17
561.742	2054.87
562.195	2005.47
562.647	1998.97
563.099	1998.77
563.551	1987.82
564.004	2012.82
564.456	2000.17
564.908	1954.67
565.36	1922.27
565.812	1877.47
566.264	1863.67
566.716	1842.22
567.168	1818.77
567.62	1820.82
568.072	1800.57
568.524	1776.17
568.976	1768.92
569.428	1746.92
569.88	1746.47
570.332	1764.77
570.784	1749.47
571.235	1743.62
571.687	1758.07
572.139	1758.87
572.59	1781.32
573.042	1782.02
573.494	1777.22
573.945	1748.97
574.397	1717.72
574.849	1715.82
575.3	1725.97
575.752	1695.67
576.203	1691.92
576.655	1699.77
577.106	1676.67
577.557	1664.47
578.009	1655.77
578.46	1663.77
578.912	1646.77
579.363	1661.57
579.814	1651.37
580.265	1653.02
580.717	1653.82
581.168	1655.02
581.619	1662.42
582.07	1676.12
582.521	1680.52
582.972	1679.37
583.423	1709.07
583.875	1776.17
584.326	1926.02
584.777	2221.32
585.227	2555.57
585.678	2820.22
586.129	2889.47
586.58	2957.02
587.031	2984.17
587.482	3231.62
587.933	4077.77
588.384	3573.07
588.834	2645.22
589.285	1996.72
589.736	1908.32
590.186	1906.47
590.637	1886.37
591.088	1836.22
591.538	1822.67
591.989	1798.12
592.439	1779.32
592.89	1778.72
593.34	1776.32
593.791	1785.27
594.241	1786.12
594.692	1821.17
595.142	1792.22
595.593	1763.87
596.043	1770.67
596.493	1795.02
596.943	1833.92
597.394	1824.82
597.844	1790.92
598.294	1807.42
598.744	1877.17
599.195	1959.62
599.645	2064.82
600.095	2170.97
600.545	2279.72
600.995	2383.92
601.445	2462.67
601.895	2577.32
602.345	2656.12
602.795	2611.42
603.245	2507.97
603.695	2355.07
604.145	2233.32
604.594	2118.42
605.044	2016.57
605.494	1888.12
605.944	1794.87
606.393	1764.72
606.843	1740.87
607.293	1748.07
607.743	1733.32
608.192	1759.27
608.642	1756.52
609.091	1775.52
609.541	1752.47
609.99	1741.37
610.44	1715.07
610.889	1701.02
611.339	1679.82
611.788	1668.22
612.238	1697.92
612.687	1727.72
613.136	1738.07
613.586	1764.67
614.035	1764.52
614.484	1785.27
614.933	1807.77
615.383	1756.52
615.832	1689.62
616.281	1660.62
616.73	1607.87
617.179	1564.27
617.628	1526.07
618.077	1505.82
618.526	1483.47
618.975	1472.07
619.424	1452.27
619.873	1447.37
620.322	1443.27
620.771	1432.17
621.22	1408.72
621.669	1382.47
622.118	1383.12
622.567	1367.52
623.015	1334.32
623.464	1336.72
623.913	1313.42
624.361	1313.72
624.81	1311.97
625.259	1304.87
625.707	1287.12
626.156	1303.97
626.604	1313.22
627.053	1312.37
627.501	1310.32
627.95	1324.67
628.398	1340.92
628.847	1318.32
629.295	1326.97
629.744	1348.37
630.192	1388.47
630.64	1488.52
631.089	1639.62
631.537	1713.87
631.985	1720.37
632.433	1781.72
632.881	1781.07
633.33	2130.57
633.778	2329.57
634.226	1648.32
634.674	1529.52
635.122	1503.37
635.57	1531.77
636.018	1774.52
636.466	1451.57
636.914	1287.27
637.362	1280.62
637.81	1302.07
638.258	1340.57
638.705	1354.52
639.153	1391.77
639.601	1399.22
640.049	1426.72
640.497	1472.57
640.944	1501.02
641.392	1439.67
641.84	1361.32
642.287	1310.57
642.735	1296.67
643.182	1282.67
643.63	1283.67
644.078	1302.52
644.525	1320.87
644.973	1356.27
645.42	1376.97
645.867	1386.47
646.315	1422.07
646.762	1475.17
647.21	1513.82
647.657	1597.92
648.104	1675.97
648.551	1731.77
648.999	1889.52
649.446	2083.22
649.893	2367.37
650.34	2806.12
650.787	3505.47
651.234	4586.97
651.682	6435.32
652.129	9290.52
652.576	13325.92
653.023	15535.12
653.47	15538.32
653.917	15538.37
654.363	15538.27
654.81	15535.27
655.257	15535.92
655.704	15537.17
656.151	10003.07
656.598	6475.57
657.044	4556.87
657.491	3523.22
657.938	2836.97
658.385	2373.07
658.831	2092.37
659.278	1863.77
659.724	1697.17
660.171	1567.42
660.618	1455.22
661.064	1362.02
661.511	1313.92
661.957	1262.22
662.404	1237.07
662.85	1214.37
663.296	1205.92
663.743	1176.17
664.189	1160.12
664.635	1158.82
665.082	1131.12
665.528	1116.92
665.974	1084.07
666.42	1087.97
666.867	1100.37
667.313	1113.67
667.759	1184.22
668.205	1181.77
668.651	1199.87
669.097	1161.82
669.543	1275.87
669.989	1187.82
670.435	1016.82
670.881	1009.92
671.327	1053.22
671.773	1115.87
672.219	1204.02
672.665	1268.12
673.11	1306.37
673.556	1330.27
674.002	1353.22
674.448	1361.22
674.893	1161.02
675.339	1004.87
675.785	939.42
676.23	896.37
676.676	859.32
677.122	839.17
677.567	819.57
678.013	789.42
678.458	794.77
678.904	782.57
679.349	775.52
679.794	774.97
680.24	770.97
680.685	769.72
681.131	767.02
681.576	761.12
682.021	773.97
682.466	774.92
682.912	786.97
683.357	822.47
683.802	894.72
684.247	977.87
684.692	1032.92
685.137	1073.72
685.583	1104.17
686.028	1152.72
686.473	1092.02
686.918	954.12
687.363	863.27
687.807	826.72
688.252	789.37
688.697	763.87
689.142	737.47
689.587	739.12
690.032	759.47
690.477	783.47
690.921	822.62
691.366	869.57
691.811	903.92
692.255	974.87
692.7	1191.37
693.145	1719.67
693.589	2606.77
694.034	3076.42
694.478	3271.82
694.923	2977.22
695.367	4201.37
695.812	2575.82
696.256	1094.87
696.701	805.32
697.145	754.57
697.59	722.27
698.034	722.17
698.478	718.02
698.922	723.87
699.367	741.07
699.811	781.27
700.255	836.72
700.699	924.52
701.143	998.67
701.588	1049.12
702.032	1087.37
702.476	1118.47
702.92	1183.97
703.364	1551.32
703.808	2377.42
704.252	2951.97
704.696	3111.97
705.14	2927.82
705.584	3981.77
706.027	2234.07
706.471	1122.77
706.915	843.02
707.359	751.32
707.803	715.37
708.246	682.17
708.69	680.72
709.134	678.37
709.577	672.52
710.021	683.92
710.465	674.67
710.908	673.82
711.352	700.42
711.795	778.92
712.239	829.82
712.682	856.47
713.126	850.57
713.569	951.27
714.012	780.77
714.456	693.62
714.899	653.92
715.342	612.57
715.786	582.77
716.229	561.92
716.672	551.42
717.115	549.12
717.558	561.47
718.002	582.02
718.445	601.12
718.888	634.07
719.331	639.02
719.774	656.37
720.217	645.27
720.66	601.72
721.103	568.42
721.546	541.32
721.989	527.92
722.432	522.97
722.874	527.97
723.317	528.67
723.76	582.67
724.203	710.82
724.645	942.37
725.088	1106.42
725.531	1077.57
725.974	1172.22
726.416	1044.47
726.859	661.97
727.301	541.17
727.744	518.37
728.187	518.07
728.629	530.27
729.071	553.27
729.514	579.97
729.956	593.52
730.399	612.22
730.841	606.42
731.283	590.27
731.726	570.77
732.168	583.37
732.61	617.82
733.053	663.22
733.495	736.22
733.937	819.62
734.379	960.72
734.821	1228.42
735.263	1962.87
735.705	3522.92
736.148	5123.32
736.59	5080.87
737.032	5468.37
737.474	4519.62
737.916	1748.62
738.357	925.42
738.799	716.57
739.241	666.22
739.683	663.67
740.125	677.17
740.567	685.67
741.008	712.77
741.45	744.12
741.892	773.27
742.334	770.22
742.775	761.22
743.217	718.77
743.658	625.12
744.1	639.47
744.542	719.47
744.983	737.97
745.425	766.57
745.866	762.77
746.307	680.92
746.749	732.52
747.19	1063.77
747.632	2067.62
748.073	3825.17
748.514	5259.72
748.956	6981.97
749.397	8101.97
749.838	5598.67
750.279	5290.67
750.72	2731.72
751.162	1161.02
751.603	667.22
752.044	539.07
752.485	480.62
752.926	450.52
753.367	432.62
753.808	420.32
754.249	415.12
754.69	417.17
755.131	407.72
755.572	407.67
756.013	408.52
756.453	415.62
756.894	422.42
757.335	411.12
757.776	425.72
758.216	436.22
758.657	462.77
759.098	506.47
759.538	619.22
759.979	897.32
760.42	1821.27
760.86	4669.32
761.301	9576.72
761.741	11157.52
762.182	12686.37
762.622	8179.12
763.063	2996.87
763.503	1336.72
763.943	1056.82
764.384	1179.22
764.824	1142.17
765.264	1130.52
765.705	783.77
766.145	550.12
766.585	471.82
767.025	513.47
767.465	690.07
767.906	847.87
768.346	891.22
768.786	918.42
769.226	908.52
769.666	1498.57
770.106	3232.82
770.546	4515.72
770.986	5048.52
771.426	3814.57
771.866	1613.67
772.306	741.42
772.745	470.37
773.185	414.62
773.625	415.72
774.065	490.62
774.505	814.82
774.944	1672.27
775.384	2515.27
775.824	2864.17
776.263	2329.42
776.703	1136.62
777.142	567.92
777.582	386.07
778.021	344.42
778.461	320.92
778.9	316.17
779.34	287.22
779.779	269.17
780.219	264.37
780.658	257.37
781.097	253.07
781.537	239.77
781.976	244.27
782.415	248.12
782.855	243.77
783.294	243.72
783.733	241.32
784.172	246.97
784.611	240.32
785.05	248.42
785.489	254.27
785.928	258.57
786.367	266.67
786.806	278.67
787.245	303.72
787.684	316.57
788.123	309.57
788.562	297.32
789.001	286.67
789.44	276.42
789.879	274.97
790.317	279.17
790.756	292.92
791.195	337.52
791.634	463.62
792.072	838.37
792.511	2055.07
792.95	3764.72
793.388	4493.02
793.827	2916.42
794.265	1344.87
794.704	640.87
795.142	390.67
795.581	328.32
796.019	298.87
796.458	294.72
796.896	307.92
797.334	348.62
797.773	465.32
798.211	896.27
798.649	1863.62
799.087	3105.47
799.526	4393.87
799.964	4486.82
800.402	3074.47
800.84	1407.42
801.278	686.42
801.716	417.27
802.154	341.77
802.592	323.52
803.03	319.27
803.468	326.42
803.906	325.77
804.344	323.32
804.782	312.82
805.22	313.92
805.658	331.17
806.096	351.07
806.533	389.52
806.971	503.77
807.409	726.22
807.847	1463.42
808.284	3716.22
808.722	6480.02
809.16	9056.62
809.597	12345.17
810.035	14868.47
810.472	9779.52
810.91	4165.32
811.347	1872.82
811.785	881.02
812.222	551.57
812.66	424.47
813.097	363.42
813.535	320.47
813.972	291.97
814.409	266.27
814.846	252.57
815.284	242.82
815.721	246.42
816.158	272.87
816.595	359.57
817.032	441.02
817.47	411.42
817.907	332.22
818.344	291.82
818.781	264.72
819.218	300.02
819.655	430.37
820.092	556.02
820.529	505.72
820.966	421.87
821.403	307.77
821.839	265.97
822.276	285.47
822.713	320.47
823.15	304.62
823.587	340.17
824.023	612.72
824.46	1529.47
824.897	2638.52
825.333	2032.97
825.77	936.47
826.206	493.52
826.643	286.22
827.08	214.92
827.516	192.77
827.953	180.92
828.389	169.27
828.825	164.67
829.262	157.87
829.698	148.87
830.135	143.32
830.571	144.12
831.007	149.02
831.443	151.97
831.88	149.37
832.316	157.42
832.752	149.17
833.188	149.97
833.624	153.17
834.06	155.57
834.497	154.62
834.933	154.82
835.369	179.92
835.805	181.32
836.241	189.97
836.677	209.62
837.112	239.67
837.548	296.62
837.984	446.87
838.42	961.97
838.856	2674.52
839.292	5247.62
839.727	3840.22
840.163	2625.17
840.599	3992.02
841.034	6070.82
841.47	3020.02
841.906	1487.12
842.341	850.07
842.777	751.82
843.212	909.57
843.648	526.62
844.083	331.77
844.519	225.07
844.954	179.92
845.39	150.97
845.825	148.32
846.261	140.97
846.696	131.37
847.131	128.02
847.566	127.22
848.002	131.77
848.437	141.52
848.872	147.37
849.307	186.62
849.742	333.67
850.177	870.82
850.613	1846.67
851.048	1310.02
851.483	607.62
851.918	345.17
852.353	199.12
852.788	161.97
853.223	133.87
853.657	119.82
854.092	111.22
854.527	106.92
854.962	109.82
855.397	123.82
855.832	107.22
856.266	94.17
856.701	99.22
857.136	95.47
857.57	113.77
858.005	132.82
858.44	115.32
858.874	112.57
859.309	121.07
859.743	116.07
860.178	109.42
860.612	120.07
861.047	155.67
861.481	208.47
861.915	145.07
862.35	109.22
862.784	93.47
863.218	87.37
863.653	97.47
864.087	117.32
864.521	158.27
864.955	263.77
865.39	430.42
865.824	312.42
866.258	362.07
866.692	525.32
867.126	382.62
867.56	211.27
867.994	141.42
868.428	121.27
868.862	145.92
869.296	139.47
869.73	165.07
870.164	136.72
870.598	125.82
871.031	92.57
871.465	84.82
871.899	71.92
872.333	65.52
872.766	65.57
873.2	73.12
873.634	69.27
874.067	74.12
874.501	76.97
874.935	71.37
875.368	73.92
875.802	68.92
876.235	63.82
876.669	58.92
877.102	53.92
877.535	58.72
877.969	54.32
878.402	58.77
878.836	57.57
879.269	57.42
879.702	52.52
880.135	60.82
880.569	67.77
881.002	54.42
881.435	53.82
881.868	57.32
882.301	53.12
882.734	49.37
883.167	54.62
883.601	49.37
884.034	45.62
884.467	42.92
884.899	48.72
885.332	41.32
885.765	44.87
886.198	44.32
886.631	40.72
887.064	43.82
887.497	43.92
887.929	46.72
888.362	43.57
888.795	45.72
889.228	48.07
889.66	46.32
890.093	44.12
890.526	40.97
890.958	43.42
891.391	49.42
891.823	40.87
892.256	45.42
892.688	43.77
893.121	40.62
893.553	41.07
893.985	39.97
894.418	40.17
894.85	44.07
895.282	40.62
895.715	39.27
896.147	36.87
896.579	33.67
897.011	42.77
897.444	38.07
897.876	30.57
898.308	39.47
898.74	41.47
899.172	38.17
899.604	43.67
900.036	42.12
900.468	37.82
900.9	40.27
901.332	50.62
901.764	48.87
902.196	44.37
902.628	45.52
903.06	69.32
903.491	69.17
903.923	62.02
904.355	64.27
904.787	69.77
905.218	54.97
905.65	51.77
906.082	48.17
906.513	46.27
906.945	49.32
907.376	53.12
907.808	55.17
908.239	54.17
908.671	61.82
909.102	67.47
909.534	92.57
909.965	167.27
910.397	429.87
910.828	1241.22
911.259	752.27
911.691	411.27
912.122	236.27
912.553	115.92
912.984	68.12
913.415	62.17
913.847	56.97
914.278	50.62
914.709	44.32
915.14	42.87
915.571	45.52
916.002	38.17
916.433	40.57
916.864	42.22
917.295	44.97
917.726	53.32
918.157	59.87
918.587	60.97
919.018	62.67
919.449	53.97
919.88	63.17
920.311	98.72
920.741	258.12
921.172	458.42
921.603	225.62
922.033	149.72
922.464	102.42
922.895	62.57
923.325	48.97
923.756	44.22
924.186	66.07
924.617	106.32
925.047	168.92
925.478	156.17
925.908	106.72
926.338	77.12
926.769	57.47
927.199	48.42
927.629	36.32
928.06	44.37
928.49	38.87
928.92	35.07
929.35	30.82
929.78	24.47
930.21	28.02
930.641	24.72
931.071	22.62
931.501	21.37
931.931	19.57
932.361	26.07
932.791	28.12
933.221	25.72
933.651	40.77
934.08	65.82
934.51	34.72
934.94	29.82
935.37	23.62
935.8	17.17
936.229	17.97
936.659	20.67
937.089	30.22
937.519	46.42
937.948	59.52
938.378	37.77
938.807	24.37
939.237	19.07
939.666	20.87
940.096	16.72
940.525	8.77
940.955	13.32
941.384	11.27
941.814	7.82
942.243	11.67
942.672	13.47
943.102	11.62
943.531	5.72
943.96	9.72
944.39	12.57
944.819	12.67
945.248	8.17
945.677	11.82
946.106	12.87
946.535	10.42
946.964	6.12
947.393	7.52
947.822	10.02
948.251	15.02
948.68	13.52
949.109	8.77
949.538	12.07
949.967	8.72
950.396	9.77
950.825	13.77
951.254	10.67
951.682	5.92
952.111	1.07
952.54	7.72
952.969	5.77
953.397	5.12
953.826	6.77
954.254	9.57
954.683	8.72
955.112	13.47
955.54	5.82
955.969	8.32
956.397	9.72
956.826	4.77
957.254	7.37
957.682	10.12
958.111	14.42
958.539	8.97
958.967	7.52
959.396	12.52
959.824	9.12
960.252	9.57
960.68	8.92
961.109	10.97
961.537	13.77
961.965	6.57
962.393	8.32
962.821	5.77
963.249	10.12
963.677	12.42
964.105	76.57
964.533	135.77
964.961	63.82
965.389	33.02
965.817	23.97
966.245	11.32
966.672	6.72
967.1	12.57
967.528	2.52
967.956	8.22
968.383	9.67
968.811	4.32
969.239	6.07
969.666	3.62
970.094	3.17
970.522	2.92
970.949	8.62
971.377	-5.03
971.804	4.92
972.232	4.32
972.659	4.92
973.087	3.62
973.514	3.72
973.941	2.22
974.369	1.37
974.796	3.67
975.223	6.32
975.651	10.42
976.078	6.57
976.505	11.07
976.932	31.62
977.359	36.72
977.786	22.02
978.214	15.87
978.641	10.22
979.068	10.07
979.495	6.22
979.922	2.17
980.349	5.47
980.776	5.22
981.202	5.02
981.629	6.57
982.056	1.17
982.483	3.07
982.91	6.37
983.337	-0.03
983.763	3.62
984.19	6.62
984.617	0.42
985.043	3.22
985.47	9.42
985.897	6.17
986.323	9.62
986.75	-0.38
987.176	3.07
987.603	3.62
988.029	4.87
988.456	9.47
988.882	2.77
989.308	0.47
989.735	4.42
990.161	3.52
990.587	2.67
991.014	7.82
991.44	3.42
991.866	2.07
992.292	6.82
992.719	2.67
993.145	6.12
993.571	9.77
993.997	8.32
994.423	5.42
994.849	-0.53
995.275	3.02
995.701	3.67
996.127	-2.88
996.553	2.37
996.979	-0.08
997.405	3.72
997.83	4.27
998.256	5.62
998.682	3.52
999.108	1.27
999.534	-1.98
999.959	2.77
1000.385	8.67
1000.811	2.37
1001.236	1.47
1001.662	0.92
1002.087	4.67
1002.513	2.47
1002.938	-2.78
1003.364	3.42
1003.789	4.32
1004.215	1.47
1004.64	3.67
1005.066	6.02
1005.491	5.97
1005.916	2.32
1006.342	7.77
1006.767	7.32
1007.192	7.57
1007.617	5.32
1008.042	-2.48
1008.468	3.62
1008.893	4.92
1009.318	13.77
1009.743	14.27
1010.168	23.37
1010.593	22.07
1011.018	13.32
1011.443	7.77
1011.868	4.72
1012.293	4.77
1012.718	0.37
1013.143	2.77
1013.567	8.12
1013.992	4.07
1014.417	1.92
1014.842	3.87
1015.267	1.82
1015.691	7.22
1016.116	1.02
1016.541	2.62
1016.965	4.17
1017.39	4.92
1017.814	-1.88
1018.239	2.67
1018.663	-7.43
1019.088	-1.73
1019.512	5.07
1019.937	-3.08
1020.361	-1.13
1020.785	0.67
1021.21	-2.53
1021.634	-1.93
1022.058	2.17
1022.483	-2.08
1022.907	0.02
1023.331	0.02
1023.755	-0.18
1024.179	-0.48
1024.604	-1.98
1025.028	-0.53
1025.452	3.72
1025.876	2.92
1026.3	5.07
1026.724	3.37
1027.148	6.27
1027.572	1.72
1027.996	5.97
1028.42	2.42
1028.843	0.42
1029.267	1.47
1029.691	1.77
1030.115	-4.78
1030.539	-0.53
1030.962	-1.73
1031.386	-1.38
1031.81	0.97
1032.233	-1.13
1032.657	-7.13
1033.08	1.47
1033.504	0.37
1033.927	-1.68
1034.351	-4.73
1034.774	-4.18
1035.198	-3.58
1035.621	1.37
1036.045	-3.83
1036.468	4.92
1036.891	1.92
1037.315	2.42
1037.738	1.22
1038.161	0.52
1038.584	-2.98
1039.008	-0.43
1039.431	-1.78
1039.854	-3.38
1040.277	3.02
1040.7	0.12
1041.123	0.52
1041.546	-1.98
1041.969	0.62
1042.392	5.17
1042.815	-5.88
1043.238	-4.13
1043.661	-1.43
1044.084	-3.78
1044.507	-0.63
1044.93	-0.78
1045.352	-0.83
1045.775	0.62
1046.198	2.07
1046.621	7.52
1047.043	1.92
1047.466	-1.83
1047.889	1.07
1048.311	5.22
1048.734	1.27
1049.156	0.82
1049.579	5.27
1050.001	-2.48
1050.424	0.62
1050.846	0.02
1051.269	-4.13
1051.691	-1.73
1052.113	0.22
1052.536	-3.58
1052.958	-5.23
1053.38	1.77
1053.802	1.87
1054.225	5.47
1054.647	-0.78
1055.069	0.32
1055.491	-0.28
1055.913	-1.43
1056.335	-8.18
1056.757	-4.53
1057.179	1.17
1057.601	-2.08
1058.023	0.32
1058.445	-1.93
1058.867	4.17
1059.289	-0.68
1059.711	-0.53
1060.133	2.87
1060.555	-2.53
1060.976	1.42
1061.398	-3.63
1061.82	1.57
1062.241	-0.23
1062.663	-0.68
1063.085	-2.23
1063.506	-7.28
1063.928	-6.23
1064.35	-0.03
1064.771	3.12
1065.193	-2.78
1065.614	1.42
1066.035	5.27
1066.457	6.17
1066.878	1.82
1067.3	-2.38
1067.721	0.77
1068.142	5.02
1068.564	-0.53
1068.985	-0.78
1069.406	-5.88
1069.827	2.02
1070.248	-7.98
1070.67	-0.63
1071.091	-6.58
1071.512	-3.38
1071.933	-5.98
1072.354	-6.23
1072.775	-1.73
1073.196	-4.18
1073.617	-4.23
1074.038	0.62
1074.459	-3.48
1074.88	-4.68
1075.3	0.22
1075.721	-2.58
1076.142	-3.73
1076.563	-5.28
1076.983	-1.48
1077.404	-4.58
1077.825	-0.13
1078.246	-4.58
1078.666	-2.93
1079.087	-1.23
1079.507	-6.13
1079.928	-1.83
1080.348	-2.08
1080.769	1.32
1081.189	-1.73
1081.61	-4.78
1082.03	2.07
1082.451	-0.48
1082.871	-5.08
1083.291	-2.33
1083.711	-0.83
1084.132	-2.83
1084.552	-8.18
1084.972	-5.93
1085.392	-4.63
1085.813	2.87
1086.233	-3.48
1086.653	-0.48
1087.073	-3.63
1087.493	-3.88
1087.913	-6.63
1088.333	-0.28
1088.753	0.27
1089.173	1.27
1089.593	0.72
1090.013	-4.18
1090.433	-3.53
1090.852	-0.13
1091.272	-3.13
1091.692	-1.88
1092.112	-3.68
1092.531	-5.33
1092.951	-5.53
1093.371	-2.28
1093.79	-3.63
1094.21	-4.93
1094.63	1.22
1095.049	0.92
1095.469	-5.68
1095.888	3.92
1096.308	1.27
1096.727	-1.98
1097.146	-2.38
1097.566	-8.18
1097.985	-3.48
1098.405	-3.73
1098.824	1.77
1099.243	-1.98
1099.662	-1.33
1100.082	-3.98
1100.501	-2.48
1100.92	3.27
1101.339	2.22
1101.758	2.37
